,CMC1_a,PIP4,IP1,PIP3,CMC5,CMC1_f,MCP5_f,DIP3,MCP4_f,PIP2,MCP5_a,DIP5,MCP2_f,PIP5,DIP4,MCP1,MCP3_f,DIP2,MCP4_a
0,9.815728089925392,-12.842432671465666,19.857298752862327,4.101825888519285,1.9287114778764098,0.7238138389000116,54.61345891955365,14.175547125216255,10.081088039618288,90.43685610817194,-18.842589280331165,13.418102414241673,11.695412868578613,15.766037398552712,-25.604314583244467,1.1888788558435552,26.402826169380774,40.187775547894965,0.5178820980259151
1,6.972044167808492,-11.348070557042224,11.037663728843409,5.402923610281445,1.6841523420269642,8.493499477262668,54.008182402732615,34.326489138354844,9.302885263176238,103.82851012576302,-16.741716538710545,11.203607854783284,27.64842697258734,15.290323288525048,-28.961897927281974,-1.4975344951985397,23.85898485547834,51.62996239548202,-0.03983631985240395
2,6.960652313712092,-11.821642940938183,9.431836269402817,5.000143487590688,1.6436002588764094,9.27813477628539,54.68049372945905,36.20465154201338,9.302885263176238,105.98538479889568,-16.69984892423763,11.324394936548757,32.38509385658923,16.097431404423677,-31.700834040110095,-0.7367056492271012,26.32827113208339,47.724620760269225,-0.4187143884575238
3,8.484001320140216,-12.31152669357184,11.13485991462188,5.000143487590688,1.6436002588764094,2.6635651955613424,54.3432959738075,28.26212028463583,9.386109769873237,85.40175807042604,-19.23303301058443,12.401971112855605,23.200049394210478,15.570326529153926,-28.626722368129254,-0.8389490667721301,27.0419826203365,27.72451889242352,-0.25567177761058346
4,8.721741905902192,-13.400147981938181,11.324936388810709,5.000143487590688,1.8562311979089094,1.5341134841830057,54.46285989350079,23.144197655832176,10.272925129176242,81.48952064079332,-19.356067762529502,12.8929590389109,19.442677260990465,15.290323288525048,-25.908422345088624,-1.5804518846667361,27.60244701086348,24.938837018751197,-0.18899948494261565
5,8.499825858608428,-13.400147981938181,11.324936388810709,5.000143487590688,1.9287114778764098,1.1381707983974905,54.44885214015656,18.10691530273946,10.272925129176242,72.1573502720778,-19.33362447936278,12.766405304525897,17.790489357295183,14.997762092613025,-24.43998138075057,-1.6789201083119776,26.427279746702013,18.27766920618997,-0.15356588190253595
6,8.522379306837541,-13.400147981938183,11.32493638881071,5.000143487590688,1.7905040207632044,-2.6200857504739523,53.00055442393439,-4.581939745764663,9.574672819200655,33.530761360366654,-20.07560803998747,11.6329590389109,12.001729131109112,14.399262922525049,-25.87961769766784,-2.1427442156667365,22.7695872760586,-5.365957175989087,-0.09226151401088872
15,8.48804509456842,-14.978653022938179,12.51581378481071,2.8571009475906872,1.9287114778764098,1.1198044478245983,52.94174324073263,-1.1687387406379628,10.226904357726658,85.29376408421017,-18.227030177948883,13.906994576758898,7.848085532407193,14.399262922525049,-13.717024865240127,-1.465315890726294,23.344445858901704,32.88477834168114,-0.08489524151702446
16,8.108573930061063,-16.20235175627402,12.71873895489265,2.1921624405071105,1.9287114778764098,3.1515222629856066,53.929161435945645,25.354453487311037,10.272925129176242,112.89348814907802,-18.030368491676278,12.319050459153457,12.02043654727177,14.399262922525049,-8.778582839213193,-1.0921631215377199,27.488206942107208,66.68514105768676,-0.18951096034382203
17,8.049177808093226,-17.749296949704213,13.70669118081071,2.34439870029509,1.9287114778764098,2.3510250989347377,54.008182402732615,31.654549854332135,10.62527720636955,114.4310784999046,-18.64115949842679,12.8929590389109,15.229555843480961,14.399262922525049,-10.439981380750567,0.011074588084480237,27.41743545460136,68.4230439192662,-0.1607242109444985
18,8.049177808093226,-18.135663104938182,13.70669118081071,2.8571009475906872,1.9287114778764098,2.3510250989347377,54.008182402732615,32.56465154201338,11.242964995176242,114.4310784999046,-17.840400001913384,12.8929590389109,16.053996920812878,14.399262922525049,-10.439981380750567,0.1064251083332637,26.56765250201459,68.4230439192662,-0.09665219833102545
19,8.262685236717859,-18.135663104938182,13.70669118081071,2.8571009475906872,1.9287114778764098,2.2983973433985505,54.563337339573735,32.56465154201338,11.242964995176242,113.61403156400952,-18.049464765068976,12.8929590389109,16.59735297442782,14.399262922525049,-10.439981380750567,0.1064251083332637,26.089332855336508,68.4185677189764,-0.08455549269947671
20,8.585590238850527,-16.681870529048368,13.70669118081071,2.8571009475906872,1.9287114778764098,1.0315647998834354,53.72071022268547,22.829946946371685,10.759981332193398,100.57241087334477,-19.296183090047972,13.236404056482852,14.263547984224395,13.821483435684032,-12.227130307804478,-0.6067722858596615,25.165668709298735,51.16458708664223,-0.02384644494591079
21,8.821977672469943,-14.598915867072279,13.70669118081071,3.7726794621940045,1.7346740054859908,-1.8918580197607964,50.64761637171012,-3.884955408547321,9.530550367621409,44.39635649829698,-19.501516945422562,13.295443799526627,6.600319474125715,13.508202556525047,-20.122143007122823,-1.5804518846667361,21.710117097402147,-1.9779307154128605,0.20924363453883518
22,8.812873162093226,-13.400147981938183,13.706691180810711,3.928622217590688,1.6436002588764098,-2.372854959065263,49.74242575473262,-10.991074080712796,9.30288526317624,34.476564211904616,-18.98349323235055,12.8929590389109,4.186587834812875,13.508202556525049,-22.439981380750567,-1.5804518846667364,20.373434265336503,0.3830439192662044,0.32683831444767586
23,8.080351858923427,-16.86637796764848,13.172634993502776,1.6556700188904805,1.81408583517551,-4.263475036511624,51.875304078732626,-6.00941114220003,9.882931906616506,85.99452667113572,-19.149348029232605,15.84556885482008,-5.26367034141494,13.508202556525047,-13.416570041087107,-2.1688445418012203,27.279692092040413,41.68659163321103,0.42867396612396846
24,7.351610410193192,-18.91970057476458,13.33987445649007,0.790544990515664,1.9287114778764098,-7.232144157732739,51.50637298225005,13.55686202862249,10.272925129176242,118.82520666922659,-16.906124420605558,19.002386466908032,-9.30679503290164,12.480168837352359,-10.287826369713256,-2.273238021665721,35.93467741040904,74.01768046869775,-0.2405110722027858
25,6.869990724610398,-19.944630363434953,16.69808603969519,1.7756854419529446,1.9287114778764098,-9.317583844605757,50.80886491673262,20.910759877842356,10.559403658836915,120.7910966819046,-16.483468833892616,20.4529590389109,-6.446580195595459,11.72608182452505,-13.350606952430226,-1.2397046197440398,40.06210172072676,74.90304391926621,-0.9356791977765704
26,6.924589903748215,-21.292673186938188,17.27932336881071,1.7855796775906876,1.9287114778764098,-8.490321575113683,50.80886491673262,20.723791341841103,11.242964995176242,120.7910966819046,-16.081874869767645,20.4529590389109,-5.530749015130112,11.72608182452505,-16.911581643109283,-1.0181595536667363,42.02760298920622,74.90304391926621,-1.2143346132049768
27,7.284741207086531,-20.81388622319751,16.584764579295985,1.7855796775906876,1.9287114778764098,-7.571911895124764,50.40582532226469,10.69742698166465,11.242964995176242,115.0072448591322,-17.425980441771674,20.165068673281525,-6.85887162164129,11.72608182452505,-18.43998138075057,-1.8287560085130838,39.94591974837558,71.07026136951977,-0.6783699257183587
28,7.8808337743796315,-18.117108986439895,15.03993814643196,1.787892650697954,1.9287114778764098,-7.397167810362848,48.8830974198951,-7.087728558100014,10.38889353927601,80.38598388794358,-18.851711001619147,17.660277130632654,-7.619446455791274,11.72608182452505,-20.873915775013533,-2.7050365466667365,30.55154097160265,23.632454112026394,0.7300329041372623
29,8.511802557987432,-16.557158063938182,14.897568576810711,2.7934854698221567,1.9287114778764098,-6.652878937452607,48.67598659273261,-11.115348457986624,9.734260674658229,45.419191966099596,-19.116797084976056,15.416954379257168,-5.13823465058188,11.72608182452505,-25.550584095954875,-2.7050365466667365,25.32091734886628,-4.395835013522293,1.0213512517970964
30,8.512821190093225,-16.557158063938186,14.897568576810713,2.8571009475906872,1.92871147787641,-6.654854637065263,48.67598659273262,-11.115348457986622,9.302885263176238,43.782363035397964,-19.108333762210055,15.412959038910898,-4.9421883851871256,11.72608182452505,-26.43998138075057,-2.705036546666736,25.136683090336504,-3.936956080733797,1.009510729552348
41,8.058729489225094,-13.900841576997419,13.70669118081071,3.928622217590688,1.6436002588764094,-2.2290185153553286,48.67598659273261,0.7157327251405221,8.332845397176241,99.83531798046184,-17.974197106126265,14.152959038910899,1.035629449988094,11.977307189783524,-10.886685028189644,-2.4600431677177452,17.67093171375941,54.8434589569192,0.2377921599620973
42,7.412830222439079,-14.978653022938179,13.70669118081071,3.5126443559679568,1.6436002588764094,-0.3391014402936986,49.257156611118624,15.650867299535197,8.557644275423932,112.76804142702277,-16.55788555297397,14.152959038910899,3.1480302757109286,11.72608182452505,-8.439981380750567,-2.698599436866999,19.50796075715114,70.84717884232693,0.30074787838990774
43,6.976096045930992,-16.024136096501937,13.70669118081071,2.6515980274132005,1.6436002588764094,0.9012549996623381,49.74242575473262,26.012607337554105,9.302885263176238,116.06381071640033,-16.170160469380882,14.152959038910899,8.701014223493441,11.72608182452505,-11.230631442216723,-1.920485777849387,23.725434387460055,74.61901567595041,0.011144944971173106
44,6.835404496093226,-16.557158063938182,13.70669118081071,1.7855796775906876,1.6436002588764094,0.6519056399347375,49.74242575473262,27.692517374260152,9.302885263176238,117.15680057790459,-16.228898150239978,14.152959038910899,10.002270631213813,11.72608182452505,-12.439981380750568,-1.5804518846667361,25.1366830903365,74.97261020780974,-0.13578750044765228
45,6.835404496093226,-16.557158063938182,13.70669118081071,1.7855796775906876,1.6436002588764094,0.6519056399347375,50.66772885752436,27.104651542013386,9.302885263176238,117.15680057790459,-16.644593385784955,14.152959038910899,10.576731188812875,11.72608182452505,-12.439981380750568,-1.5804518846667361,25.1366830903365,75.9810586928798,-0.13578750044765228
46,6.955211023695961,-16.557158063938182,13.70669118081071,2.3970972734843694,1.6436002588764094,-0.634136934415061,49.702724986487155,20.655857752331514,9.302885263176238,113.41282246725365,-16.37543141824099,14.643900415783596,8.711374541934733,11.72608182452505,-12.439981380750568,-1.9013523316010048,23.60101854142529,73.81526723953228,0.01901380170210855
47,7.620147118213196,-15.660285973957164,13.70669118081071,2.8571009475906872,1.6436002588764094,-3.0477335863327912,48.67598659273261,4.698313007315601,9.302885263176238,81.95529141668653,-17.831367313618802,14.596913755975223,5.502327010958559,10.947982384799772,-14.488616745669907,-2.5908998693789886,21.231777552788294,29.96708948628479,0.31575478922991995
48,8.019092069803365,-14.978653022938182,13.706691180810711,3.6334808115060886,1.64360025887641,-3.2858140992883054,48.07148487999604,-2.7854040710604684,8.856408481517649,41.7060619436931,-17.99010343025808,13.84376652293226,5.442219237796412,10.835021458525047,-18.89981658447054,-2.7050365466667357,19.07432409700165,-2.85720660676467,0.28840213566493683
49,7.229152174502505,-14.978653022938179,11.324936388810709,3.928622217590688,1.3584890398764096,-2.4033785739761955,47.35141279517205,-31.128419096076463,8.02222544048716,29.3304145023431,-18.870520686028566,13.106662948817057,-6.589368885056762,11.72608182452505,-16.24060610774512,-3.877719322152018,14.918995945761605,13.056932839598176,-0.18554229442701015
50,8.71836887157598,-14.978653022938179,11.324936388810709,2.658083277296696,1.1254044232649227,-3.9035099386447984,44.29183518384048,-106.4225106018685,6.713306529460913,-28.17462689822816,-20.173481403629708,9.948800955239852,-39.226168463760956,11.72608182452505,-23.655945753810474,-5.338803657649553,6.677332751456873,33.60874848159655,-1.0496505413450088
51,9.228120667934087,-14.978653022938179,11.324936388810709,1.7855796775906876,0.8916007110194168,-3.472064630874999,42.50337879736674,-129.1658256130729,5.4833745878984,-34.040864904863824,-20.304348762162046,9.112959038910901,-54.540250261964545,11.72608182452505,-22.43998138075057,-7.398698262074929,3.2853000209487924,36.00858557257487,-1.1711948193975088
52,8.305351794689537,-14.97865302293818,11.32493638881071,1.7855796775906876,0.9130692246393455,0.04232955021684903,43.21092140958064,-73.70781260307011,5.847344373941643,-15.308123977434036,-18.607073727325744,9.664502767119293,-26.22496708916574,11.726081824525048,-20.283575664461193,-7.23777134625438,6.273495418605907,22.421976539567464,-0.9981525843170272
62,7.777308802309958,-16.557158063938182,10.13405899281071,0.7140584075906875,1.3584890398764096,0.06557159284310743,47.68822858432457,-33.404094215340535,8.332845397176241,13.084696417406544,-20.04552705328275,12.314570912225035,-8.196450551562185,12.617142190525051,-13.654117383600138,-5.516498201666738,15.170999582085472,4.041856434032868,-0.3311866483154774
63,7.116068290319784,-16.557158063938182,10.13405899281071,0.4435904180950843,1.3584890398764096,-3.788848056584476,44.2431367509175,-66.5263083886974,7.8392162588178484,-17.046709189836907,-19.33930253529473,11.600976189101331,-30.450459465392115,12.617142190525051,-14.61899108087739,-5.847816103094654,11.342839016137589,21.696483719156248,-0.7166870840685027
64,7.148329013377934,-16.557158063938182,10.13405899281071,-1.1399820993814307,1.3584890398764096,-8.48865082973073,42.369159199376746,-93.24594668335773,7.362805531176242,-24.286719875988364,-19.376774377257153,10.397067432259576,-48.69295988050858,12.617142190525051,-19.056626270237803,-6.078790532666736,10.041282603420353,27.290068915657283,-0.6638978153378932
65,7.05676491441592,-16.557158063938182,10.13405899281071,-1.4289841324093127,1.3584890398764096,-8.009107513089855,42.277351620732624,-90.54560570014182,7.362805531176242,-22.832171275640256,-18.71267752503546,11.010092758409568,-47.80427518114702,12.617142190525051,-18.43998138075057,-6.078790532666736,9.894286850336503,27.080246400316724,-0.6847379895098432
66,7.070408285533949,-16.497448259519587,10.134058992810711,-1.2741580421263188,1.3584890398764098,-6.409367866690803,42.277351620732624,-79.87628760285733,7.362805531176241,-19.285140737706243,-18.414504457311146,11.6329590389109,-42.352450698446766,12.61714219052505,-16.625787147081276,-6.078790532666736,10.031936976986776,24.497623003791556,-0.6651724467965072
67,7.476031408338725,-16.557158063938182,10.13405899281071,-0.3574628624093126,1.5279188435548656,-0.62077707802768,48.087062415519,-30.715787484017802,8.332845397176241,16.897790169082548,-20.226100333102107,12.54289058268625,-7.3686494327018615,12.617142190525051,-12.514358725799264,-5.516498201666738,16.294802256003294,0.35774029706719757,-0.3118459944025956
68,7.274460326805325,-16.557158063938182,10.13405899281071,-0.3574628624093126,1.4959971497175772,-3.4982640326246024,45.21290249319629,-64.3540787385548,8.061804274705302,-14.059847868377071,-19.609979178323112,11.383666203221797,-25.84882245788272,12.617142190525051,-15.448463609148861,-5.543701729745582,12.668887775137064,18.884434221983,-0.635543460947046
69,7.560957205384946,-16.557158063938182,10.13405899281071,-1.781115712422054,1.3584890398764096,-8.316932939234015,42.66700028809855,-94.644139462954,7.362805531176242,-24.101682591706858,-19.916900901878627,10.372959038910901,-47.44909263660498,12.617142190525051,-18.92111366001404,-6.075871605683967,11.799586380336502,26.137849544072907,-0.461281960487487
70,7.452996486770438,-16.557158063938182,10.13405899281071,-2.500505402409313,1.3584890398764096,-7.120080271905149,42.277351620732624,-86.97409672544532,7.362805531176242,-21.69129142756105,-18.825744789822245,10.659378028944285,-45.05575250309252,12.617142190525051,-17.10812733600831,-6.078790532666736,11.799586380336502,24.538279353706493,-0.4280809526679745
71,7.463913393304643,-16.557158063938182,10.134058992810711,-1.8595678976541425,1.3584890398764098,-5.2994516819386455,42.277351620732624,-68.55599023435796,7.3628055311762415,-16.51782808923846,-18.30601468769312,11.01114374029078,-35.70369357497757,12.617142190525051,-15.79819738535452,-6.078790532666736,12.5911367813923,20.32054117508711,-0.4152655116311348
78,7.470710412218505,-18.135663104938182,10.13405899281071,-1.4289841324093127,1.6436002588764094,-1.3255642265605116,46.49028605489073,-48.568636740413396,8.814507783904379,-5.261987507761704,-19.439776522390513,11.940438389811165,-17.831445563182708,12.617142190525051,-9.84335259544014,-5.516498201666738,16.917790551377472,11.196739241176546,-0.29662677092142076
79,8.147130600577889,-18.135663104938182,10.13405899281071,-1.6812483618161977,1.4225140557367661,-6.325151005196534,42.096419741682155,-92.05433562691887,7.5806391822814545,-22.803512002526944,-20.12387498791855,10.847708866510581,-44.277347818754386,12.691295815701174,-19.55566408711879,-5.952521298026652,13.116810519549167,24.41240890502838,-0.35468711224350885
80,8.506180721508386,-18.135663104938182,10.13405899281071,-2.9853461698321215,1.3584890398764096,-6.74961983441601,40.988478449814835,-104.9057659700485,7.362805531176242,-26.6402007307832,-19.639598686734686,10.842675915338635,-51.006422012954424,13.508202556525047,-20.43998138075057,-6.078790532666736,13.235901039607201,26.531422248154175,-0.3174378866915357
81,8.383666321500506,-18.135663104938182,10.13405899281071,-5.269577891635999,1.3584890398764096,-8.49800568199874,40.14447329673263,-113.94940021542008,6.741221232880466,-28.827535318458168,-19.627868062065215,11.6329590389109,-57.23377566137022,13.508202556525047,-20.380813115321356,-6.078790532666736,14.655177914492187,28.401982719215294,-0.324440565585367
82,8.172601305854151,-17.76401676851375,10.13405899281071,-4.889043788909273,1.3584890398764096,-7.037125124380846,40.1582409110293,-91.03229012896468,6.476289063940973,-22.04404185369041,-18.736781693267027,11.6329590389109,-46.82701677058098,13.231453528657148,-17.35530887323052,-6.078790532666736,14.373956575534008,23.38785247706894,-0.3287931717437255
83,7.76907724601788,-16.55715806393818,10.13405899281071,-3.1962642979361604,1.35848903987641,-2.496049303082827,41.4108628360477,-43.9829113432661,7.362805531176239,-5.576133128910639,-17.581916373682677,11.63775580849597,-20.19493044250042,12.61714219052505,-12.439981380750567,-6.078790532666736,14.502074912561904,7.856475099225626,-0.3789926812412702
84,7.899151822093225,-18.135663104938182,8.94318159681071,-4.643547942409314,1.6436002588764094,0.21002525993473675,47.609547430732626,-22.915920743723117,9.302885263176238,31.37711698485311,-19.520476463912164,12.8929590389109,-5.070537434769381,12.617142190525051,-8.386005794435942,-6.078790532666736,21.909135660577913,-4.272979422071157,-0.10145218993016666
85,7.997851405244116,-16.940978402791295,8.94318159681071,-12.454972977259674,1.5576885230235462,1.6185531907921504,47.609547430732626,-64.07578108703387,8.34450343391739,9.107958457326141,-21.097931247333847,11.839595963489035,-6.618409799465971,12.005291310741729,18.74534961395586,-6.036055057126832,58.59172260560209,2.0263402464178673,-12.412344041082584
86,8.016229998241174,-20.27104620121836,9.819657911590381,-18.96850977763542,1.5257529349899288,-0.6066380520493625,41.1947682248207,-102.29656664399583,8.500027931885986,-6.209331259942329,-20.9666569188086,17.074041942448844,0.47069272638297355,9.39435844518294,43.62529803472631,-4.391527621169714,88.67010619821163,12.228803488525632,-31.752464873524385
87,8.241586518093227,-24.44968326893818,10.13405899281071,-20.716366992409316,1.6436002588764094,-5.318116822065263,34.812277486732626,-101.36611750050898,9.302885263176238,-4.915892691778874,-19.12733966480717,22.418563433342733,6.3732404623138175,7.27077999452505,48.20268989656936,-2.7050365466667365,90.8695168753365,10.820909420268604,-33.373509274403176
88,8.25378301697589,-24.44968326893818,10.13405899281071,-20.45503610592595,1.6436002588764094,-5.144062294310654,34.99116757830925,-96.20212655346064,9.302885263176238,-1.024162383721368,-19.117295962523027,23.280257574355772,7.789447735955225,7.420251128138616,49.07224316616234,-2.7050365466667365,90.70971441329853,6.624741669454455,-33.169060310725925
89,8.291595180093225,-24.44968326893818,10.13405899281071,-19.644845722409315,1.6436002588764094,-4.604450209065262,35.87871664873263,-91.1953484579866,9.302885263176238,2.0604549827015286,-19.18357022404002,24.2329590389109,8.406275070747125,8.161840360525048,47.56001861924944,-2.7050365466667365,90.04428657163524,3.598589305594294,-32.377473655010334
90,8.213517076092037,-24.44968326893818,10.13405899281071,-18.672230200591816,1.6436002588764094,-3.882094207416304,36.25483254388259,-84.6776136281885,9.302885263176238,3.4528976986376305,-19.06251797547216,24.2329590389109,8.81791139149311,8.16215226569217,47.56001861924944,-3.101038109564571,88.56879314149482,2.490120789255926,-30.880673220442905
91,8.070369170093226,-24.84274925380867,10.13405899281071,-10.304516209746382,1.8241285967547225,-2.554045781065263,36.945155810732615,-55.104896470783814,9.917100604469708,5.870918381441205,-16.762199284703264,25.22079647631621,3.6595061410535936,8.993500027043446,39.130579538878976,-4.71105382403282,52.95521296104355,0.6780055812066772,-8.742111128977497
92,8.11462850559775,-26.507014247588508,10.13405899281071,-1.738889143184973,1.9287114778764098,-3.8611757460919454,35.74220402220673,-30.35315935549564,10.272925129176242,7.908638212360675,-15.162007846092049,24.166951345267734,-0.49627801145501804,9.05290072652505,12.395225244074807,-4.954205870666736,17.593956736495326,-0.8553564464169868,0.19048391560410954
93,8.186910136722506,-31.009964717556958,10.13405899281071,5.670308722374518,1.6987289206419853,-6.098395804613087,32.80592882133657,-22.387260826658967,9.417977447944672,8.753850706872772,-13.903085933302002,21.7129590389109,-2.35695634924775,9.43696596610627,-14.200387562666457,-4.954205870666736,10.191518630762994,-2.1614400357985284,-0.10232221817019674
94,8.241586518093227,-29.185198391938187,10.13405899281071,4.048180390047877,1.6436002588764094,-5.318116822065264,32.67939916273262,-22.035348457986625,9.302885263176238,9.945065509904616,-13.600114755419911,22.722445168713648,-1.2906778971871242,9.94396109252505,-7.235263508360882,-4.954205870666735,10.759497118307381,-2.8569560807337955,0.07393329373307825
104,8.488833873035102,-21.578691810357633,10.13405899281071,-13.839472514349923,1.3591296635634307,-1.7896844401995207,32.06459899016632,-55.51687894131019,8.332845397176241,9.997885200903431,-17.063182712895486,26.21889154243654,7.027875245121397,4.974964636235816,28.440106435572744,-4.083630293701683,71.43015017781458,-2.859359403026334,-16.792942405188285
105,8.510974757300284,-23.75328881497472,11.06791741422088,-17.617373715513892,1.5178167697412857,-2.764536125697689,30.617511527019907,-75.93276007660208,8.719668222937436,8.32400881481998,-17.81165674314637,25.764896275330813,13.184468533501349,3.477009191322156,31.71311438331736,-2.640160633255272,91.95813415688649,-1.0928480764631232,-33.29983371393243
106,8.638039775690912,-24.44968326893818,11.324936388810709,-18.94489053085049,1.6436002588764094,-4.8678777355806275,30.257431938576737,-78.45534845798663,9.302885263176238,8.127917457904616,-17.564540574926795,25.25156462800258,15.457673311878102,2.815478164525048,37.56001861924943,-1.6030281206829051,93.68921694524546,-0.6969560807337958,-34.69265762841505
107,8.612838514093225,-24.44968326893818,11.324936388810709,-19.644845722409315,1.6436002588764094,-5.227521411065262,29.480081676732624,-78.45534845798663,9.302885263176238,8.127917457904616,-17.09941392551069,24.2329590389109,16.053996920812878,2.815478164525048,37.56001861924943,-1.5804518846667361,93.7274661703365,-0.6969560807337958,-34.72980559814037
108,8.612838514093225,-24.44968326893818,11.324936388810709,-19.644845722409315,1.6436002588764094,-5.227521411065262,29.480081676732624,-78.45534845798663,9.302885263176238,8.127917457904616,-16.955517736794846,24.2329590389109,16.053996920812878,2.815478164525048,37.56001861924943,-1.5804518846667361,93.7274661703365,-0.6969560807337958,-34.72980559814037
109,8.458153273482122,-24.44968326893818,11.324936388810709,-19.269756629270557,1.6436002588764094,-4.927499874122743,30.404434157198406,-78.1929567965153,9.302885263176238,8.127917457904616,-17.27153563215912,24.2329590389109,16.053996920812878,2.815478164525048,36.447718837022364,-1.5804518846667361,93.7274661703365,-0.6969560807337958,-34.72980559814037
110,8.301270320133526,-24.44968326893818,11.324936388810709,-18.284985143541533,1.6436002588764094,-4.466377640299801,30.546520838732626,-74.54088359915436,9.302885263176238,8.127917457904616,-17.222377271693077,24.572016731319938,15.453887865928477,2.815478164525048,36.09820543259711,-1.731761043562101,93.1012116359582,-0.6969560807337958,-34.06583649870867
111,8.341603842093223,-24.44968326893818,11.324936388810709,-16.506268949618256,1.6436002588764094,-3.8907835960652633,30.546520838732626,-65.97347941925122,9.302885263176238,8.918871018712494,-16.657915813448415,26.66360601385777,12.83393649542028,2.815478164525048,39.4181884207524,-2.665161530207194,89.70556436434117,-1.2946883075030353,-30.479170270393034
112,8.341603842093223,-25.750067248442605,11.324936388810709,-12.67110130913843,1.6436002588764094,-3.8907835960652633,31.264713670460836,-51.092601492507846,9.302885263176238,9.920632335081297,-15.872169131803792,28.262656827337477,10.58314059070206,3.3490671973232065,38.38733303831207,-3.5406400994861706,67.96368501581809,-2.0067954729346864,-15.472740131681835
113,8.341164546048745,-24.55911158188206,11.32493638881071,-3.3342056500098027,1.6436002588764096,-3.897052728404132,31.612960000732624,-32.481488608550634,9.294364045869507,10.503534984734554,-15.040435720148201,28.462989310444424,8.129109189504367,4.039603013813768,35.23334120866667,-4.391913539666736,28.555544478680186,-2.8664432317405057,0.8115495773273759
114,8.509749287750571,-22.87117822793818,11.324936388810709,-10.524917829561574,1.383825814375199,-1.5792250856488996,32.67939916273262,-33.34949154740661,8.332845397176241,13.579361613904615,-16.328519886459677,26.755121529266944,8.762881814472781,6.18896069293552,28.305282998163147,-4.048293498789853,54.52905979394931,-5.016956080733795,-6.705137087563356
115,8.541638490093227,-22.87117822793818,11.324936388810709,-15.21968360265721,1.3584890398764096,-1.0361171440652637,32.67939916273262,-47.737176724334894,8.332845397176241,13.558363170851514,-18.05690896544031,27.342167015633578,12.415291288836338,5.2687130072019235,29.56001861924943,-3.2956933684432816,83.91948590388373,-5.016956080733795,-25.68241662399472
116,8.462547628915551,-23.694373984619254,11.324936388810709,-17.06528291157607,1.5954555856516999,-2.164811749330297,32.03812000003998,-58.12801819726835,8.838724492118374,12.689763075192296,-18.707724227728033,25.04863184979846,18.64906517523262,4.26691357044918,31.36451889792801,-1.9824517970778186,93.0266161160907,-4.858369699736644,-34.007038242304404
117,8.467637344592232,-25.249742342072892,11.324936388810709,-19.819520995610638,1.6436002588764094,-5.509176170954042,31.61296000073262,-59.493697758862005,9.79454615492988,13.241691379351622,-18.251303470494218,23.5002556767664,22.621359557724126,3.4649533019299468,35.26528194370822,-0.4342901595821157,94.42397482813656,-3.984367096936433,-34.79102089913126
118,8.512821190093227,-26.028188309938187,11.324936388810709,-20.716366992409316,1.6436002588764094,-6.654854637065264,31.61296000073262,-58.97860286106419,10.272925129176242,14.487935639904613,-17.998224710961793,22.9729590389109,23.35701789681288,2.815478164525048,37.56001861924943,0.1064251083332637,94.68011593533649,-5.008267254655765,-34.65997621155583
119,8.572618558980565,-25.497486383693985,11.324936388810709,-18.99456023574598,1.6436002588764094,-5.801494758727795,31.61296000073262,-54.762888970615315,9.62065983758905,14.487935639904613,-17.912298676912325,24.38517364862823,21.00893188882934,2.815478164525048,38.23242942879361,-0.6500471688677013,91.37535102905942,-5.016956080733795,-32.05419781025493
120,8.744108721141838,-24.289446419235073,11.324936388810709,-10.891582274987906,1.6358631206700756,-3.882804207935252,31.61296000073262,-38.119198882679704,8.161945499584965,14.487935639904613,-16.633195643905832,28.41834073696404,13.055147326369973,3.3740343237782064,37.49251655499568,-2.452640125056803,60.99165471758312,-5.016956080733795,-12.21724881266931
121,8.849023625017393,-21.558382298499353,11.324936388810709,2.4111042895415897,1.3632972012293743,-7.064446604406337,30.81191616590378,-22.31058562061936,6.556052081297212,12.977635127245243,-15.691517417379192,23.71030030026916,4.499242960382724,3.706538530525048,10.012441951609278,-2.7050365466667365,10.501829001160747,-5.016956080733795,1.1294108028956253
122,8.963644091524337,-21.292673186938185,11.32493638881071,3.254117389359139,1.35848903987641,-5.428713976476988,30.546520838732622,-20.21534845798662,6.392765665176241,13.170461774381371,-15.004737166156005,25.131653206310975,5.086037517597852,4.488794295248668,12.26465472077993,-2.705036546666736,8.616675095339561,-5.016956080733796,1.0925364572357097
133,8.934081848093227,-22.87117822793818,11.324936388810709,-1.456092593028097,1.3584890398764096,-5.850592613065261,30.546520838732626,-25.72139271273687,7.362805531176242,13.579361613904615,-14.696609423059977,28.0129590389109,6.012343078812876,3.706538530525048,29.56001861924943,-3.2673288776667357,21.398387406931157,-5.016956080733795,2.1679391787263267
134,8.933015813754523,-22.2724926182556,11.324936388810709,-5.55521181025315,1.3584890398764096,-5.481187995953485,30.546520838732626,-30.631008430361497,7.362805531176242,13.579361613904615,-15.281146483819237,28.0129590389109,7.11559471025194,3.706538530525048,28.341598983497292,-3.2673288776667357,35.09138632314741,-5.016956080733795,0.10578678374157381
135,8.7283288131985,-21.292673186938188,11.324936388810709,-13.03613002266224,1.3584890398764096,-3.579375523922389,30.546520838732626,-40.15806598297439,7.362805531176242,13.579361613904615,-16.51270658712926,28.001688255914292,9.670307395888097,3.4308391954695576,26.76161047920294,-2.807173242496654,73.44386619288193,-5.016956080733795,-17.950976990017526
136,8.728414569308034,-22.52955271252931,11.324936388810709,-16.25582428013239,1.4380208731122104,-3.578151710491105,30.03140572692978,-57.56701477366465,7.685402594533436,13.257930177762555,-17.824209271658738,25.37066897981356,16.007195921812425,2.3658584047360596,25.971807205689128,-1.5673629415646124,92.90951548603145,-4.634878296096109,-34.37260379509867
137,8.777454030838236,-25.797569148365437,11.324936388810709,-19.836194895230726,1.8870568055295223,-6.936032130876513,28.41748358361601,-62.07534845798662,9.29939140241258,12.899220740948827,-16.667027667347842,22.085193729669246,22.17949341932641,1.1635411121333468,30.536785179711465,0.42350570932007825,96.3039795203557,-3.936956080733797,-36.60456210992356
138,8.834064524093222,-26.028188309938187,12.14405948403279,-20.716366992409316,1.9287114778764098,-7.277925839065261,28.413642514732622,-62.07534845798662,9.302885263176238,13.579361613904615,-16.836255718945594,21.73094823410744,23.17623031225345,1.0333574325250479,31.56001861924943,0.9608889799970035,96.58541546533648,-3.936956080733797,-36.88538840587757
139,8.834064524093222,-26.028188309938187,12.51581378481071,-19.37381429964633,1.9287114778764098,-7.277925839065261,28.413642514732622,-61.28597815800268,9.302885263176238,13.579361613904615,-16.68705004193341,22.93443475394724,22.60916953171207,1.0333574325250479,31.56001861924943,0.48390009018376035,96.17223226161249,-3.936956080733797,-36.468921437885754
140,8.872959686451308,-26.028188309938187,12.51581378481071,-18.108556136211874,1.9287114778764098,-6.72285842330077,28.413642514732622,-58.77661116107229,9.302885263176238,13.6605596439648,-16.529698176914803,23.749020868105514,21.485921553775093,1.0333574325250479,32.59704329464361,-0.13746707300402597,94.84220426557451,-4.713722142436833,-35.0906304294761
141,9.025326075784896,-25.44977647576804,12.51581378481071,-9.728211344153463,1.847562386076726,-4.548459016039306,29.29299461819064,-38.203149175588585,9.026790010202744,14.487935639904613,-15.282502270041869,28.796701225476863,13.60831071169748,1.0333574325250479,36.7892291980306,-1.9454428595615463,58.60654721730274,-5.016956080733795,-9.953073842569598
142,9.034099172093224,-24.44968326893818,12.51581378481071,-4.643547942409314,1.6436002588764094,-4.4232593870652614,29.480081676732624,-31.13534845798662,8.332845397176241,14.487935639904613,-15.081534786462994,29.272959038910898,11.489608810812877,1.7324894381595133,35.56001861924943,-2.6678972243882297,35.75450203913296,-5.016956080733795,0.3647696606829121
143,9.034099172093226,-24.449683268938184,12.515813784810708,-4.643547942409314,1.6436002588764098,-4.4232593870652614,30.051897660053815,-30.98653887964277,8.332845397176241,14.562223836444854,-15.325800269353492,29.2729590389109,11.489608810812873,1.924417798525048,35.56001861924943,-2.705036546666736,35.61583050533651,-5.016956080733796,0.39216992201900697
144,9.297975728370078,-24.444544657688063,13.70669118081071,7.480816477922847,0.8668569295708178,-11.072493681046428,25.85466041394222,-17.866867323311357,6.0487567738417995,13.64259934864484,-14.829395262817284,27.934489943241353,2.689587907499139,1.0333574325250479,-20.411096978500012,-1.0181595536667363,5.025225316066349,-5.2714142167541596,0.6134666068233869
145,9.245750932606805,-22.504368716459286,13.70669118081071,19.246096519422412,0.4812538158191352,-11.817786428670665,24.477851045658397,-12.140905262798329,3.6781637082875367,13.901327103591193,-13.274865384176055,24.90927488995661,2.4191545729395267,1.0333574325250479,-86.4002120069281,-1.0181595536667363,-13.544594855993077,-6.2138464243052525,-4.039205751271903
146,9.534707715515971,-21.73199564846319,13.70669118081071,22.18110340638399,0.21804416387640965,-7.694124640595621,24.147885866732622,20.20881669175636,3.48264606717624,38.137541875783675,-11.620378236732776,17.98037462033809,9.945184983376587,0.647464608941367,-140.39689901021194,-0.1048149327819317,-18.38505574418793,-16.46684952378482,-5.887318262292191
147,9.117829540509357,-33.769981756030745,13.70669118081071,24.472575940654405,0.7409199891568812,-9.114586868211525,22.068385413125217,32.82466425734776,5.960249147682308,41.934290453292114,-11.092095831363112,16.712449038305795,7.6861051815552095,-0.49849019623274926,-180.5325637666431,0.8605481391307365,-23.47492466113026,-17.385647428785127,-10.254710465478272
148,8.57448556617517,-46.84560224029397,13.70669118081071,25.35904761759069,1.9729213155517242,-10.98234080028632,19.07150397069828,32.478175391420194,12.24911794385625,39.75476154079645,-9.3721445132523,19.1929590389109,6.086242415880161,-2.3543747384319773,-192.11200769707088,1.7665851363371359,-25.313945444499513,-16.52163987733468,-16.106682888916893
149,8.696579369171516,-48.12725888393818,13.70669118081071,25.35904761759069,2.2138226968764094,-12.503216249615868,18.81569005673262,30.442493918302063,13.183044727176242,35.55042285471716,-9.001754244979022,19.1929590389109,3.9549093529471873,-2.5308840314749528,-187.0384795466384,1.2341454058927568,-25.331231022854194,-14.624315067524563,-16.799017490638906
150,8.951370175269373,-42.329308958451776,13.70669118081071,22.111318814186824,2.0225199165555905,-12.742864349944544,19.360039263439344,13.061212938961885,11.98263186302377,27.773253048109424,-9.61434891885579,20.67351894930539,1.4392296770413873,-1.7985455159179748,-136.91011192357962,0.301270095246321,-18.09693552740306,-11.43284593899515,-11.27455444178816
151,9.43512478564829,-36.42032472063139,13.70669118081071,9.448062817377227,1.6454068535938724,-9.115258688758813,20.948568380732628,-9.75862334117179,10.2790717441842,21.064664586379564,-10.304798706389423,24.337452424822416,-0.16006302794636376,-0.7487632994749521,-66.68464165383857,-0.45586722266673624,1.361910077652536,-8.263799453301534,-1.2894641716645663
159,9.611844583887207,-38.21023473140616,14.897568576810711,4.253836695248956,2.1119786139799888,-6.593315193065799,27.225043452500504,6.920610113342703,11.827818390737072,25.854688563497184,-12.523755980490446,28.295868195239255,9.395141182097142,1.0333574325250479,-65.89292141911842,-0.391457008278672,10.73810029759642,-11.454231605843008,-0.19959425116956603
160,9.65835681287537,-37.077723596938185,14.897568576810711,18.50842661818217,1.6653401645599661,-5.92954568599394,23.80858383789996,40.53435414175119,9.835873032795059,28.600071168005343,-11.061845021174822,20.339776489023908,15.500336708714881,1.4431956107205994,-121.25584889526085,0.5898778294324962,-16.69963525892637,-13.742081315287633,-9.738037291339147
161,9.86580055759067,-40.59753767112817,14.959379803309535,21.405863822563727,1.6436002588764094,-2.969145052219609,22.13241402736182,48.00366676868355,9.302885263176238,26.014396963061213,-8.180428247320489,16.34453844106939,20.412763086966194,1.924417798525048,-181.33204882655457,1.416051521192612,-23.835186622703034,-13.656956080733796,-13.818390195682257
162,9.883281684504329,-49.95005057459954,16.083653136538423,24.220266708588188,1.3976775122396305,-2.7196743378082955,22.01500754273262,49.9828615373106,9.302885263176238,18.87863433670265,-6.563480343527573,13.834963438776576,21.171097523332218,2.075820561138487,-278.25782627683765,2.5845237099712244,-30.93487749148276,-13.999670813788272,-18.910798860301753
163,9.54482968156128,-49.176905700100995,16.088445972810714,23.33212334732399,1.4658408491239334,-3.2802918986818046,22.022046984357594,42.05052080624543,9.522586659994891,16.79886631426471,-6.300434454055022,14.90443837459219,20.076655344793128,2.619546382373136,-245.35041547797897,2.836228804925909,-27.87935397581721,-13.500114896499426,-16.91802501791948
164,9.200180200597549,-45.12503522913621,16.088445972810717,16.528881720228995,1.9146180482434505,-7.26063012438114,24.651264294311446,24.224683485408704,11.869682277592783,16.572503702382743,-9.565819482809752,18.85463268362074,12.651401158252616,1.9244177985250472,-132.7462820099019,2.056158343807254,-13.159528461542978,-11.238949645297293,-9.282333959016686
165,9.20410347084053,-39.38660731622914,16.088445972810714,5.232332823700967,2.1420039685458927,-7.204641684094721,28.413642514732622,7.004714751487353,12.316446926368187,18.14036347604021,-10.145305114049636,19.208150033253137,11.748783744675215,1.924417798525048,-74.08363118270837,1.7933021013332637,5.041046734790902,-10.438508832789294,-2.1321041629773654
166,9.672564820563325,-45.86113328652835,16.088445972810714,19.654465150538496,2.16246762203331,-7.534929162530534,27.69540269512904,10.74191917992574,12.324590747639645,23.222028166504813,-7.771592103870838,10.016584904768058,12.331356695484956,2.592669562321307,-206.1979707090356,2.930586850607929,-20.278529978287906,-15.519212294712439,-12.968991941102177
167,10.025747506076533,-46.70199369451193,16.088445972810714,20.313037835438475,2.49893391587641,-5.894054386561906,26.01597786433017,8.41321544403655,14.15308459317624,23.573675899904615,-5.300595366031953,10.075528147704368,15.719863924729568,2.815478164525048,-197.65116041901018,3.4801790943332636,-20.887637203172982,-16.67528037623297,-14.415545057686455
168,9.718907457501446,-43.842237285038244,16.088445972810714,18.306469889199423,2.49893391587641,-7.7737228077333125,25.566210900438854,8.90465154201338,14.15308459317624,23.573675899904615,-5.428856253421924,11.368296237620624,15.373555771682888,2.815478164525048,-155.2929169395336,3.750037066987732,-17.304046156786672,-15.816956080733798,-11.959950212057745
169,9.503614995495765,-41.948044336047886,16.088445972810714,16.77835228669004,2.49893391587641,-8.13784449428373,26.280764190732626,8.90465154201338,14.15308459317624,23.573675899904615,-5.4460254145290525,11.637971405737186,16.053996920812878,2.2007009163712414,-129.38371966728,4.514756946400222,-15.015729714470947,-15.816956080733798,-10.527430894796403
170,9.59722754981596,-41.536728798720304,16.088445972810714,6.171257559396157,2.4989339158764095,-6.801912839564172,26.280764190732622,3.2202633453834273,14.15308459317624,23.02511238878117,-7.041987632692762,16.108386344166036,16.799843021098628,1.9244177985250477,-80.41683054725942,3.9269556973195043,2.0364577724568895,-14.512980358116659,-3.1958027146497265
177,9.88947908487321,-44.97024880193819,17.27932336881071,8.621912933514833,2.6798512402539725,-6.9535971435012245,31.905649730239773,13.364275255865891,14.948318913305487,18.317757884111195,-11.138118329119388,20.06754371338081,14.415796095501486,5.822550369214112,-98.54466063224726,3.0416158072790527,-3.8968953260465575,-13.294972662650887,-7.252711134396012
178,10.674484854413073,-50.41650375006344,17.27932336881071,18.87639460794005,2.0644176448081537,-2.6248370001895456,27.854803058729885,18.133144842593094,11.777785200168566,25.335051326986804,-5.347116638148151,2.5269675258557442,20.868884686873702,5.934118744523893,-251.97849954439982,4.703084257247709,-22.61414136697721,-17.78769732781817,-14.28260250629836
179,11.107384497269738,-54.373784349109144,17.27932336881071,18.929919997590687,2.2138226968764094,-0.6504789352259421,28.413642514732622,12.845895947178809,12.213004861176243,18.897767692447793,-3.9628933021177737,2.8668349013983097,23.35701789681288,5.488659262525049,-271.5506062652108,4.721776799113172,-23.4484549246635,-17.121704097441683,-15.093852912364842
180,10.679069412955943,-51.164291086705745,17.27932336881071,18.929919997590687,2.2138226968764094,-1.8194219293557299,27.424023525360617,14.364651542013378,13.113168608014973,17.36629188766623,-4.156214946455426,4.840973321240209,23.203660752605984,5.488659262525049,-237.79660149067743,4.604763756333263,-22.629208612940992,-15.982117968245523,-15.493495588647956
181,10.437941827977282,-48.828193803433116,17.27932336881071,16.125261082689267,2.298752572346444,-5.219176775531651,27.89509181228594,12.813898336621698,13.23722345517515,18.392880788000937,-6.819774592146589,9.834980662775724,20.394738642221867,5.488659262525049,-177.6407764462861,4.098969347812433,-16.2203992265349,-15.152436667198756,-11.859039419063347
182,10.274102611545503,-46.54875384293818,17.27932336881071,9.178264384172689,2.49893391587641,-7.557303291842802,29.480081676732624,8.90465154201338,14.15308459317624,19.030805769904614,-9.732487931144782,17.9329590389109,18.792629786812874,5.488659262525048,-98.23846567324063,3.4801790943332636,-4.203485733260343,-13.656956080733796,-6.127924150746509
183,10.033703985908073,-50.5687328211895,17.27932336881071,2.4735711841723402,3.922634146916774,-5.78050857698239,31.42487279589631,0.2399882219559936,20.685533937581845,18.122231743904617,-9.288719632176859,20.98462903680104,12.402486432812877,7.741746185645219,-76.7694178121553,2.9178867633332635,8.067245444948924,-11.496956080733794,-5.718989001223399
184,9.649823058059605,-64.07445280872031,17.27932336881071,11.571981059841491,8.223196102007725,-9.687248424806528,30.86337490324493,4.2094237762671565,41.91453627599942,17.780194310774213,-6.446821786595709,19.39633755803703,11.639012908011312,2.35933881710459,-127.88388308263751,4.23049968890793,-10.057961767858874,-10.512767493712456,-30.785204981438277
185,8.870612680609788,-67.06931937593819,17.27932336881071,12.500792377590685,10.353368851881408,-13.064262905387686,27.682779157192098,-0.4087140032244074,53.115372115657465,15.350760223780267,-5.992696125263951,21.664665873662315,11.488614463269254,-4.0439145326588015,-153.76201209057663,7.515958944829077,-13.814309499154804,-9.702354157762388,-46.295593418846586
186,8.456336501972846,-67.06931937593819,17.27932336881071,12.500792377590685,10.482048047876413,-12.668429551838818,28.413642514732622,0.026077930228909557,53.924719099176244,14.487935639904613,-3.9188627271005263,21.7129590389109,10.634832262974463,-4.313004763474952,-156.31268923827415,8.126538373301589,-13.921957274663493,-9.336956080733795,-47.249514476107436
187,8.541254393088085,-65.74764133184237,17.27932336881071,13.49866080192527,10.373351941904584,-12.403489064518773,28.305409970152194,1.2937094195686165,53.18736765645381,14.487935639904613,-1.9378003009057008,19.67619526566421,9.699593397892249,-3.660005026101278,-154.91479114773176,7.7641488128611424,-13.921957274663493,-9.336956080733795,-45.917388528007
188,8.831364186302963,-59.303711873258884,16.28928081126439,14.03905321727952,8.244201450185665,-16.285561020531222,24.669861892211674,-5.4394350881542435,41.40224088048825,13.0182263970427,-0.9280471213831956,8.680717863167729,1.7854728310277057,-2.6036629516413385,-153.8172251499241,3.6243849078330843,-14.521084992220574,-9.021476135493039,-32.8004361940447
189,8.790505498558804,-24.183119519882165,16.088445972810714,18.15736068835714,0.5510223947845376,-19.808257252044505,9.216277970765692,10.29276323632913,3.6264049899715602,9.036491483904614,-6.658220220607372,3.2917256580284806,-3.4586507097284653,-5.930441328061561,-198.19251953134128,6.426610761788539,-22.719523367424372,-7.21240785888727,-9.446693380910398
190,8.693010886717683,11.461609716752672,16.088445972810714,16.798020283552844,-2.2659142462344795,-14.49837238699514,-8.844347645410881,2.683655210459281,-10.463757581433711,7.34979835920642,-1.2300206735784913,5.728687102296464,-4.791382335598692,-9.607382505981565,-110.73338923064857,8.5192495506773,-22.675361656348937,-6.864941847698419,-2.8566672833540947
191,8.749049235291766,8.536663887590182,16.088445972810714,10.727863655390925,-1.6407719042940425,-4.706771120697085,-5.975611910371955,-2.060902493222802,-7.051886714238204,1.5494970338090075,0.1383683735702262,17.940628429558668,-4.9777545302078865,-7.901954615384849,-50.20278246662397,5.493523997922222,-13.524670374721673,-1.1941897055789559,-1.605956508664709
192,8.06657799270224,2.4537216332203995,16.088445972810707,8.667894232014206,-1.0990041919313311,-0.616847716467134,1.4544565814502293,-0.19534845798662107,-4.138657139973369,1.5508961659552294,-2.4449905330439585,20.93249033151236,-3.139858914386616,-3.834038859761225,-42.074285606738066,4.390766321171108,-8.434780360169912,1.0520170970363854,-0.9017259464926659
203,8.6989320234136,-38.243926059382886,17.27932336881071,5.967235945457427,3.2029902589250416,-3.998892994693001,16.730880908061387,1.5182763635009662,17.634325661195454,10.853639535904613,-6.39147005382849,25.337229192452625,5.519880794716115,-1.0050360417944848,-57.24617315773074,6.478064967633084,-3.316778652428718,-7.176956080733797,-7.896023187623334
204,8.45801165154524,-58.32046122230135,17.27932336881071,8.94106538431854,8.91945993372642,-7.437033887044666,17.91740699791933,3.112002826077801,44.94570762852926,10.428978690277788,-5.9360840021171715,21.247420241059828,5.087566149576595,-3.2191181022797775,-101.6169419356484,7.598196939525748,-8.70828162008609,-7.176956080733797,-31.521637539271914
205,7.595492411325232,-60.75529921193818,17.27932336881071,9.489213399542127,10.639150745852161,-12.734218862410238,23.357979135392963,-5.919233485604472,54.0245649693077,8.815635262226808,-7.288343893219735,26.30502520528437,2.9442885065708952,-6.445847848972156,-157.9100389719563,10.323583453352773,-11.250271822897762,-6.214090486493544,-44.06132999148005
206,6.978804551471058,-60.75529921193818,17.27932336881071,10.357749837590688,10.76715926687641,-13.00983858225414,24.147885866732622,-6.280077182554896,54.894758965176244,8.127917457904616,-6.16110689412769,28.0129590389109,2.3608325908128758,-6.986185861474952,-164.74325100285506,11.87340833983091,-12.969307509663498,-6.096956080733795,-47.24814007978662
207,7.436120233687223,-60.01263332650731,17.27932336881071,10.357749837590688,9.893868085103524,-10.081531496396797,20.216692994525488,-0.5079639402407539,49.77426220146274,8.633741314633335,-2.7068932939070884,23.747705755047438,1.7842997598179762,-5.496769501109216,-130.63819206056561,10.601066112288585,-11.90730122609716,-6.096956080733795,-39.596082984618434
208,7.906851275180729,-40.60683158752854,17.27932336881071,9.455424001499605,4.527947386906862,-8.050580133136625,18.806062601614716,1.624651542013379,23.36089383591283,9.483258029349129,-2.2870234518331287,21.7129590389109,1.4479549688128757,-3.634168965005831,-80.45781415026514,9.435722253850987,-9.832922713906395,-6.628016682591762,-14.034605549506837
209,8.078262007726925,-19.601368579087886,17.27932336881071,9.286228567590689,1.3861771920570063,-7.648898040187062,17.65952712720777,1.624651542013379,8.199800900623895,9.945065509904616,-4.8141056231488,21.555778747399145,1.4479549688128757,-3.421944397474953,-64.86578309796369,9.103102404333264,-9.158708449663495,-7.176956080733797,-4.541755972156853
210,8.133981105106093,-6.206998993655804,17.279323368810715,8.560497276700657,0.3309397632996442,-6.853738603487677,15.960522505852472,0.5446334824671956,2.4726165892582803,9.481280936073317,-6.023777570973131,21.200663849365945,1.4479549688128752,-3.4219443974749533,-52.3138475237543,8.862711000228703,-9.158708449663495,-7.176956080733799,-2.32322779758015
211,8.522039785583003,-26.810788442487432,17.27932336881071,8.398521410375224,1.9846780992189752,-6.523297351653245,15.513153469814897,1.800806704318141,11.211020610344825,9.945065509904616,-5.413741097355605,23.611080297773253,3.273710212812876,-3.5748013450684923,-63.25520359035117,7.429509456806651,-8.839587938049315,-7.176956080733797,-6.6061022952180615
212,8.361184243488262,-57.39805033163713,17.27932336881071,10.724845339904942,8.261952942997885,-8.81884426928589,16.33949191624641,3.3413194637070003,42.037149265215845,9.942768890280846,-3.9643046391488155,20.574996026697548,3.273710212812876,-4.497851292494685,-109.95084372094114,8.083703577983352,-12.343028721893122,-7.174226144457069,-31.92754131874088
213,8.108563842205642,-60.75087959086253,17.27932336881071,11.429271107590688,10.194211308162405,-11.0866001932415,22.285391605587993,-1.6312785878088505,51.1804356394572,8.718934591310449,-5.794805448521047,24.033089679740566,2.901807934416665,-6.272427837110984,-150.2244827627943,9.14872691424709,-14.142715438802771,-6.1594710634709235,-44.185851266656535
214,7.703493277423506,-60.75529921193818,17.27932336881071,11.429271107590688,10.482048047876413,-12.997170113812057,26.280764190732626,-7.052140334658059,52.954679233176236,8.127917457904616,-6.1046106716362765,28.0129590389109,2.3608325908128758,-6.986185861474952,-170.27563324616497,10.227687066333262,-15.827256804663499,-5.350006807872485,-48.78223541231399
215,7.822124568611953,-60.75529921193818,17.27932336881071,11.406948667415428,10.335652858762275,-11.30419956846381,25.83630325616905,-5.747846376932507,51.95948741740122,8.215772874118972,-3.8662053584804386,25.653017582060684,2.3608325908128758,-5.978642101008754,-155.76494886635336,9.854866365774338,-14.750072403628941,-5.375429087794896,-45.94984154278499
216,8.207942143942605,-54.52173976230337,17.27932336881071,10.384630286986571,7.787697876962993,-8.906068422397407,24.500265678649775,-1.9348416808693545,39.48900367482182,9.510876387006206,-2.072943400662676,21.091088321862493,1.5351409789992743,-2.9154738035403978,-105.21432116049971,8.894152927206813,-11.120228530050959,-6.1053181156679,-28.44577801768603
217,8.337950980173302,-32.879501133385304,17.27932336881071,10.357749837590688,2.9557985726945653,-9.15040291684429,21.286624324380504,-0.195348457986621,15.911847757061539,9.945065509904616,-4.5688304781318285,20.4529590389109,0.5745056727632738,-2.5308840314749528,-85.4591020914237,8.540810073333263,-10.111358214663497,-7.130309530308848,-9.12161285222903
218,8.285942582206106,-14.121244063713966,17.27932336881071,10.357749837590688,0.8524895725387546,-9.892607481821537,17.26407534488923,1.0728125822606214,5.344755874929558,9.945065509904616,-5.865201363908652,19.291072132676945,0.5350773468128756,-3.352559723474505,-77.50937066931994,8.540810073333263,-11.358951654717627,-7.176956080733797,-4.247772161064327
219,8.262777880093221,-10.985565702755459,17.279323368810715,10.357749837590688,0.5031553828764096,-10.223187702065266,16.68281173273262,1.6246515420133796,3.4826460671762387,9.945065509904616,-6.099510198869668,19.192959038910896,0.5350773468128753,-3.421944397474954,-76.43998138075054,8.540810073333263,-12.016657744663501,-7.176956080733794,-3.7302397288458167
228,8.926685221808537,-36.74113678420044,17.27932336881071,9.577384134680782,3.539795741313224,-11.163638670877805,21.6442650858621,-1.1110193582161478,18.646356794633412,10.853639535904613,-5.664860871593008,18.50694034967065,0.5350773468128756,-2.149207885835787,-85.79932768905212,7.416225411333263,-10.442542333737725,-8.256956080733795,-11.205045954113471
229,8.903285617188777,-56.17007869675476,17.27932336881071,10.357749837590688,8.189827838667775,-11.497571151905282,22.417839811979075,1.1262732548064502,41.32245501386809,10.853639535904613,-2.680922899965518,15.96762862467315,1.2702261870443878,-2.5661448608090422,-104.65179500145345,7.522911773946809,-11.064007979663499,-8.256956080733795,-29.337093345020268
230,8.50933957872796,-60.63678126438144,17.27932336881071,10.357749837590688,10.22236447663828,-13.47652847182131,34.38748198933425,-4.605713416071541,51.260872765328365,10.285861182213507,-4.346756746906254,20.312516008530032,2.335973333269408,-3.4134326002521673,-156.34289465953586,8.722963035178223,-11.659329769344417,-7.339298868252502,-41.33238141743851
231,8.283969242093224,-60.75529921193818,17.27932336881071,10.357749837590688,10.482048047876413,-15.128258582065264,38.01159497273262,-10.719044520808147,52.954679233176236,9.945065509904616,-5.222199091179463,24.052646019402992,1.4719819747478633,-3.421944397474953,-177.5405541892144,9.58492757021521,-12.016657744663494,-7.176956080733797,-43.92180959150119
232,8.336730012681278,-60.75357954958342,17.27932336881071,10.357749837590688,10.402784546076955,-14.375317012765816,36.61933227905675,-9.057031537590957,52.051793847875444,9.945065509904616,-3.5277044389979766,22.24045182088159,1.3314836716723506,-3.107615914229292,-165.62161836941652,9.467041736717345,-11.895112039986156,-7.176956080733797,-42.53921078097026
233,8.519746862730578,-54.503880295556016,17.27932336881071,10.357749837590688,7.975209966702444,-11.897203394508193,31.21826635083948,-4.112758739354397,39.953901654073206,10.51526791820029,-1.478462154308188,17.795561429142918,-0.03782590999190641,-1.20840000306081,-111.97815583747197,8.268565648551606,-10.39502020846972,-7.176956080733797,-27.730068961809785
234,8.84936729641923,-28.292155475433095,17.27932336881071,10.357749837590688,2.6460283494324552,-12.171575437258175,25.878709242315317,-3.3167827025954613,13.71854496940368,10.853639535904613,-6.414603477190459,16.6729590389109,-0.3778002751871245,-1.3273663660429365,-83.21606183457725,7.978517742333265,-10.111358214663497,-7.176956080733797,-7.505526545954718
235,8.826766155286148,-11.901820338985916,17.27932336881071,10.357749837590688,0.949471066542582,-12.589569678173207,18.97900873794734,-2.0153484579866205,5.2217864421964135,10.481334259925168,-7.215073997211719,16.905979869237818,-1.1028636369158402,-3.172071423939035,-78.43998138075057,7.489499318056989,-10.111358214663497,-7.176956080733797,-3.219495074240045
236,8.805373933696378,-10.553480277490701,17.27932336881071,10.357749837590688,0.7882666018764097,-12.894855077061028,17.749250894732622,-2.015348457986621,4.45268593317624,9.945065509904614,-6.812529336239719,18.609228611117743,-1.2906778971871244,-3.4219443974749524,-76.90988721119719,7.416225411333263,-10.111358214663497,-7.176956080733796,-2.914276188840328
237,9.052100096234557,2.7149433157035023,18.470200764810713,10.598564638442893,-0.08179561824016854,-14.581350398816475,21.526179983952694,-5.061512598086517,1.1301287272482707,10.614856744347584,-9.316823165356496,13.36242347040954,-5.236973367908421,-1.9275634547573992,-72.39988683832856,7.450023625088395,-11.361764259044119,-7.176956080733797,-1.27386994086121
238,8.716160463585696,18.900911021858118,18.470200764810713,17.626540826247016,-1.939016039962812,-19.37549785681038,9.2631923245943,10.681327296044163,-7.734613710508663,9.085996731380169,-9.482088430901527,4.770415502402343,-11.176634721648707,-4.832970877893778,-180.13737772972468,8.064455070604952,-23.726914095330514,-6.928442361296906,-1.9179139062022315
239,8.609996711965174,18.407122953577627,18.470200764810713,17.036150828700382,-2.0257595248219413,-20.879928525848484,-2.312005730490376,6.28352516660554,-8.157832324823758,1.8649421624608797,-5.724515906924768,-1.979780879605212,-18.905051635336733,-7.360990717917523,-168.9888384144073,8.729114386461145,-23.901410903313067,-1.3471617974749592,-1.4983972906788565
240,8.099067094897693,20.46692829460965,18.470200764810713,-3.1098653095345536,-1.7777343691235907,-18.757998273941947,-14.574967552173495,-49.8536755318451,-7.852480301817118,-8.655176135916104,-3.049687383972249,-6.799774422716849,-20.648314518926444,-8.768306593474954,-61.8087950334469,10.152854123154905,-1.2948932154228248,8.757124838876914,4.151446055648681
241,7.9021565999769425,16.762107235284375,18.470200764810713,-9.564776487323769,-1.5959879663509364,-16.473466236724544,-14.710138458107835,-52.024042575838365,-6.513381962317322,-8.763337356624673,-2.27508999660063,-3.995750041559557,-18.1828218472408,-8.271313231404367,-42.43857895849036,10.55073848605564,12.73728425629411,8.745498327088994,4.778962931288332
242,8.57853339056212,-13.076019807077119,18.470200764810713,-5.262740543546155,0.959305487913592,-10.924574865251858,-4.121992029441719,-24.192235705533996,6.001751927113226,2.55073358570136,-1.293006219550562,10.315697681200206,-9.700971502912923,-5.362574942580888,-40.807978979171736,9.159263887103613,8.770575028719787,-2.6303245168973417,3.4518637335628477
243,8.779152239325857,-35.499218555938185,18.470200764810713,-4.643547942409313,3.06915635387641,-8.061571365954551,4.847410759376675,-20.547342971287293,16.09316432517624,6.38741589259395,-1.6527805229326291,16.549409148956187,-4.954691493665456,-4.313004763474952,-28.636092317186623,8.493375598617707,9.974651526678981,-5.89994834756637,1.2518156383602022
251,9.130412534739968,6.297103201858456,18.470200764810713,-7.324110123557668,-0.802826290472164,-5.12095527596817,12.244216629360862,-15.4276257749552,-2.984784936504484,21.738157163516938,-9.187199076115029,17.175629907956264,12.00081277517256,-1.4568458945521967,8.3397698531536,7.133277130394521,20.293672905741868,-9.336956080733795,1.813987805728273
252,7.943895402588979,19.655062463565542,18.47393266949458,-6.008924971179758,-1.7777343691235907,-8.94415253010424,11.617087135461993,-11.374087518391717,-7.726643955174056,20.43208475824421,-10.884635302678689,6.351498802243135,12.213524226146273,-0.8352925451059129,10.496846073985667,11.091650135092593,13.655740183617931,-9.400856446026314,1.6107178727923355
253,6.469875719153963,21.402506313924373,19.59498225386975,-3.67142615626405,-1.9329900447969774,-10.463711093106406,-4.936476220865659,-0.09462546942002334,-8.255901899997957,15.494592263736736,-6.208915418145915,-1.66484216998617,15.976044379905174,-5.911605698498541,25.39553945065107,14.352761101535592,4.573115187613712,-10.200910631058157,-1.7419641217603066
254,6.363073338277757,20.916818616616172,19.66107816081071,-2.511621684579478,-1.9940151466738254,-9.717445082428897,-10.118608951783955,0.34859994439342884,-8.435396821153907,13.786875765018685,-3.9614544220186945,-2.2401125779823485,16.245871941298287,-6.16834891962759,14.41810774643222,14.547617393974692,3.225738495336504,-9.336956080733795,-2.1224805154421125
255,6.438136667211236,-3.812745961104588,19.66107816081071,-1.2348809636979372,-0.11541706489767285,-7.50614654013759,14.984414652065873,-6.06670613444322,0.625699056287598,14.487935639904613,-4.875754097300312,-7.441935228698214,8.438765064068933,2.178405346034194,-13.937423591099883,12.37262532307459,3.225738495336504,-8.577457148448794,-2.2283216530331442
256,6.740046240274665,-19.205920800773836,19.66107816081071,-0.3574628624093126,1.0733778208764095,-5.91642851623564,34.54976253483818,-6.232951976336773,6.317252308327446,15.660348603242541,-9.426664410490208,-10.089464597507034,6.774772554868381,7.134841524978537,-23.12864943035192,11.022022989454015,3.225738495336504,-8.256956080733795,-2.776757423347363
257,6.8045657906821715,-15.165433802117668,19.66107816081071,-0.3574628624093126,0.7873085834912175,-4.995679046641569,29.5515752543376,-7.27179720555316,4.8254011952318585,16.61451920766256,-8.042899460044287,-10.517198547099122,7.8011987999914085,4.593875201163106,-25.055276854885832,10.397539523266754,3.225738495336504,-8.256956080733795,-2.024616452625707
258,6.3634301809489076,-10.883179712599153,19.66107816081071,0.5065861985055308,0.28219397108578476,-7.449547828237544,14.12432496231801,-9.022904798174828,2.269422003777902,15.941049508336723,0.10759294747130671,-18.009037197785773,6.128848349278249,0.329110731424679,-71.97535896136233,10.813609021358372,-0.1125431932057154,-8.52865648204973,-1.8623345253805923
259,5.5993881669299315,-15.606129094323679,19.661078160810707,0.474137808371105,0.2180441638764097,-6.2275975114026245,9.417026152751875,-11.233488849100493,2.020563459219397,21.92930325069873,5.063546842156737,-27.437433666715503,6.896523820967142,-1.1748576098811774,-56.89649104806151,13.14044658341081,-0.20939232624326484,-9.409693507668063,-2.470815045819551
260,8.109281383209689,-6.7866554977578035,19.66107816081071,-2.500505402409313,0.07811083283642546,-3.8676200283648603,21.003245712437398,-9.775793280785841,1.708539200911876,26.74322510941739,-9.412528676593055,1.9822920266932382,9.341804048106429,1.1485064382717356,-2.942072939607708,8.468318630346356,8.723344273651342,-5.465988726454095,0.5417422047893635
261,7.480462463011395,12.57040803628556,19.66107816081071,-4.060414003309766,-1.433800221383031,-5.553649347051745,4.855042356427966,-5.209730176825186,-5.556424210632513,24.212774116717956,-5.914191664264021,-2.6751249258382743,14.074503939827732,-5.0477977273764525,13.773726518375115,12.209899999312242,9.07307933139291,-6.140522491118622,0.5798688659612294
262,6.783179834765906,20.281347844098867,18.779773907036855,-4.463104611627901,-2.15410935737674,-8.455695001827563,-14.028862154065807,-3.9390752818525026,-9.293312989448056,20.945778239679882,-1.601846410440663,-14.14705389039669,15.509204000448877,-5.217508763658475,13.608442081140774,15.333544141068769,7.115911260116059,-6.096956080733795,0.33998967330956004
263,6.1704537058683036,22.905467961061817,16.11654871720459,-3.5720266724093133,-2.347956807123591,-9.407642246611418,-20.617392730164976,-2.238997202295802,-10.764553296088762,19.030805769904617,-0.9031573393223608,-21.526547005286364,16.75475256233024,-1.737379055678494,10.217659222709733,17.95153636739776,3.5567193438313485,-6.096956080733795,-0.34138554974034774
264,6.175612109881448,21.144055980384824,16.088445972810714,-3.5720266724093133,-2.2678400001315127,-8.763899117068092,-20.132916757834877,-3.835348457986621,-9.651633864379479,18.18723275339209,-0.3078525908839116,-14.595339426426365,15.275679547232576,-1.6398236654749525,9.311759001825031,17.173083501018162,3.225738495336504,-6.096956080733795,-0.3544347924284979
265,6.356611350684959,-8.90419771750912,16.155160414261584,-3.572962207499416,-0.22967198157313717,-6.472614390889976,-18.80246604069403,-5.657291533118008,0.23830556413880644,19.41852875638666,0.2618619248691194,-5.997244025555061,14.633339762383617,-2.439507980836278,14.176552943293048,15.974343690703822,4.471273032215818,-7.0662047349716985,-0.8988201095433997
273,8.18746269142533,-6.370233957363939,18.470200764810713,-5.942047601171981,-0.19527949696567254,-2.740310902746353,8.741170665531108,-11.764632252590477,0.02169473254843222,22.937596834318448,-5.618328683520365,1.7284199550687809,13.766150381700008,-0.059824774283154365,17.028469005460174,10.743176261284669,15.632642127671875,-8.256956080733795,-0.3854666784880887
274,7.656715937402955,11.48194372890931,18.470200764810713,-6.312085931249811,-1.6105363560120523,-4.078022625308387,-7.476659769951438,-11.115348457986624,-6.517404965637804,22.665101873904614,-1.6209192112925295,-4.340127513928286,14.228241676812875,-2.092893804579579,14.476927574997813,13.78032431724534,16.490577475893232,-8.256956080733795,-1.7539052308234089
275,7.19796090318969,15.012942756061824,18.470200764810713,-6.782476285036812,-1.7777343691235907,-4.912151134198567,-13.085620253794886,-12.395495642534884,-8.154107773963544,22.665101873904614,-0.45069157355003386,-6.0070409610891,14.228241676812875,-1.755825173080713,11.560018619249432,15.079434982102732,17.511827190253353,-8.256956080733795,-2.41186069562041
276,7.177839192093225,15.009511153559627,18.470200764810713,-6.786590482409313,-1.7777343691235907,-4.876236442065262,-12.111045641267378,-12.935348457986622,-8.104136719711377,22.665101873904614,-0.13965873564071335,-6.127178356619494,14.228241676812875,-1.2703609182456959,10.38928397842546,15.288318045333263,18.33168388830053,-8.256956080733795,-2.5578582716388323
277,7.1581860691141355,12.448935093972457,18.470200764810713,-5.40223033580417,-1.6557962357271134,-5.156703408195247,-8.770297902577248,-12.320173832884416,-6.6873381274257335,22.665101873904614,-0.23866886567993617,-3.9066801004128364,13.773582121335922,-1.4795229927836362,9.560018619249433,14.732953260610307,15.664408787420344,-8.256956080733795,-1.6306087308472177
278,7.267019818122297,-9.045436154078239,18.470200764810713,-4.643547942409314,0.08739023389564178,-3.6035522154129502,10.556906401483301,-11.115348457986624,1.3832590122282227,23.208501146698136,-2.901295493674419,-0.9670409610890993,12.495560108292345,1.505840094199451,11.777577210608447,12.886262390592679,13.916763642863152,-8.256956080733795,-0.7561348382840676
279,7.327865178093225,-33.074600152416345,18.470200764810713,-4.643547942409313,2.1687067784587084,-2.735236603065262,24.642690221210472,-11.85425796280136,11.696349918001054,23.573675899904615,-4.708031698025834,-0.9670409610890994,12.402486432812875,4.45963617088605,16.78671648231534,12.476856390333262,15.852705576245947,-8.256956080733795,-1.3170248025998206
280,7.241242259709391,-24.290203169026714,16.932873864724357,-2.197840349943621,0.9710984739764096,-3.971420142052324,33.019329444756046,-11.466908569072,6.011941680328313,24.8831479922422,-12.05826393835937,-30.522508348783873,12.291457414039957,7.516287494242027,-10.795653268284333,15.994927381704729,13.04530077788692,-9.209346782084264,-4.289551374306791
281,6.788144873801397,-28.880609223992025,15.223134020822677,1.3815958747834005,0.942094124327854,-5.362510710728643,33.416830505681034,-8.979989052784594,6.087826756069632,26.18884897946872,-12.8182012861156,-24.44512664038733,17.520358442125694,4.599237886168816,2.16757020921268,20.375209476575723,4.137243797162381,-10.416956080733796,-9.4422715381944
282,6.471753992261046,-27.273562253934347,14.897568576810711,-0.6044575502877044,3.891741363182577,-4.537699780535295,72.81361106802878,-6.08303199227111,20.189614654557598,29.367937307365573,-26.047787511386773,-25.499780131401902,18.17317651789394,26.193345982769433,2.272929862090131,21.725691533252395,9.493355464991309,-10.491427279060668,-10.821183189119543
283,6.732826574755004,25.255236349787783,14.897568576810711,-3.639031209182183,6.45873794615105,-0.8119695121344921,124.26388983505878,-11.23828125674797,33.314354762116125,32.8829317421007,-50.024923300826266,-26.279230554645117,16.16891114861358,62.674704478231014,-10.834420413596385,21.861660492945422,21.879821435966573,-11.496956080733794,-11.135272330338806
284,6.672034763095877,52.450045742473755,15.07207134244729,-1.4289841324093127,7.63093585787641,-2.859332747436809,139.7762741167163,-14.755348457986624,39.35919610508422,34.13468254195449,-48.507075520144035,-18.917133340876987,14.581781392324203,79.51753161008435,-10.914532448893269,20.612399003941974,34.15324095897351,-11.420331278946774,-11.651080152047271
285,7.0435864423312875,45.469176425722914,16.08844597281071,-1.4289841324093127,7.630935857876411,-3.8051834893109637,135.21451356437825,-14.755348457986623,38.960484742507745,33.180563573724534,-46.717556671792295,-17.3470409610891,13.838979960864956,76.14471457926447,-14.998451694187077,17.620243621554426,32.35166018652737,-10.416956080733796,-11.227809955728134
291,7.206653214994322,-10.094048178137308,17.27932336881071,-0.34944157739556475,0.6732670483756893,-3.310800034748943,39.75065313639417,-5.655348457986621,4.439770151838347,24.495852887269322,-14.685634179808977,-11.614832657832743,10.641743713099052,11.25852836826884,-23.79555229532302,15.193985287784844,10.854068041932772,-12.576956080733796,-1.3579002305291998
292,6.7241957388294304,-19.679133428866628,17.27932336881071,-0.022113564295272718,3.2587461723777715,-2.352690214538792,84.90286349865488,-6.227489535050474,18.297354175661386,29.18345963514546,-35.82547061070778,-26.76926896339381,13.156629708548389,38.90309901376752,-28.587706470060972,19.185027904561185,17.314129308470847,-11.713372690440249,-3.1387318856442374
293,5.758259204575726,25.778430250006814,17.27932336881071,-2.713603244168346,5.58673248846365,-3.2755207711102865,135.29801446332195,-9.062700179698945,30.738833034746925,34.94799961138165,-71.3193990145563,-53.609551751195696,14.84637830797963,88.07226365317435,-54.27852944873354,24.328121292469532,25.12000046579185,-12.043590766189439,-3.9671013616941497
294,5.368638941707554,36.51558856208831,17.27932336881071,-1.6977726293944442,6.18510197043312,-5.434368596841117,141.5012084507296,-8.526111685514728,33.38336511190967,31.68355118314152,-74.22130422396424,-51.89764630388934,13.13590690394323,94.56677359373779,-60.041516608971016,23.917807200304352,26.09042480385264,-11.387131177084933,-4.243459947867987
295,6.257681152698963,-2.222615044289146,17.27932336881071,-0.43979744990962777,4.555553130591826,-4.3770639267437454,90.5621494300059,-5.795165922955252,24.43192687491066,27.051988569388538,-36.55036636562433,-37.31407196225429,11.489608810812877,48.27351781665634,-51.38912983508848,18.53975364411791,19.255489207806075,-13.27815512744351,-3.7999643087844577
296,5.939301595893583,-12.726326393551645,17.27855854720052,1.6431396433009835,1.3275531703559615,-4.095339583823893,35.26705786583984,-1.4958733230813497,8.405637555259085,22.284408754744444,-10.622251636071418,-21.920494503014652,11.107698762859467,9.86379408732618,-33.16393505675658,13.242685521341985,10.455232767097591,-13.656956080733796,-2.2853843058837797
297,6.404320330819002,-9.897744609468548,16.088445972810714,0.8843067055412908,0.8330324728534366,-1.50866004765068,48.47357579263991,-1.4578232117455066,6.6340260229124475,21.913775927877754,-19.050387269774866,-11.251472015637368,11.016053502532356,15.037442937586254,-23.798943022139728,11.967580723099756,10.354230233773,-12.576956080733796,-1.6495684304037774
298,6.5575771821395366,-18.06978061936979,16.088445972810714,-0.12399569073227541,2.9272489654813967,-1.8320057775976375,85.86862443275777,-2.0153484579866205,17.128927502377465,26.678103829645185,-37.9023592887633,-17.35478343260109,13.94454907185504,37.110224362309644,-24.650213978265825,16.308923935221483,16.754177801673965,-11.520509642397192,-2.5554471680213946
299,5.876646523082631,16.630127414479954,16.088445972810714,-3.098477765390549,5.402567074382722,-3.247557336130111,135.7313918717429,-3.310252147839006,29.635767406365375,32.58045851537027,-72.00371286652515,-35.919707454065076,14.612908856110135,82.31448323113766,-39.28584448070747,20.557183939444844,23.364082287723487,-10.837045773560686,-3.5992864428271605
300,5.312396251283564,23.807915320475022,16.088445972810714,-2.5957616784765043,5.849966819137714,-5.831411453503016,139.82100450147865,-1.3986753248527077,31.44792629681926,30.203225681994827,-74.56044105993664,-39.47731586569344,12.976443670639446,87.4587739748851,-45.98351021757805,20.753927159448608,19.79373458437349,-11.496956080733794,-5.166383871473175
301,5.885604269833999,-5.953373058756558,16.088445972810714,-0.4213945255261266,3.9765105681762334,-4.1952926027484345,87.47793899993984,-3.6010742865667145,21.64404410964232,25.882997807299507,-35.01589694362668,-34.76766757538786,11.444295611813338,43.63687151902925,-47.65715636630654,18.153949903705136,15.60628368317196,-12.792104737694196,-3.679540941201934
302,5.969947029334088,-10.74658448187565,16.088445972810703,2.5997711258052054,1.3996560439951629,-5.499307281286698,42.33720567555903,-2.5000528341959383,7.818591532925833,20.23672344636986,-13.433472445763453,-28.123263459494105,9.534622837159878,14.2731207338155,-43.23910134190205,15.707129849264918,7.447188454813476,-12.461318826745776,-2.5361451470345857
309,6.702431832009894,-9.749283979830675,17.27932336881071,2.0709608483136153,1.2455277814852346,-1.2457286298631103,54.94377576842806,-0.22449801924028345,7.967245077926649,25.794381024406217,-22.55692588123497,-12.970137041995574,12.163235159294677,19.860793424429026,-26.450307289823755,14.254908390762068,5.757430530047576,-6.067345454371816,-3.532547414622802
310,6.323130043584673,10.537801588422393,17.08828556438911,-1.5193994857622553,5.284298757411351,-2.177847034174805,125.98388210540615,0.4848715135029191,28.11769739257829,38.68055780328919,-64.5665565921648,-42.318989851151,17.15718756724304,72.5964511295096,-40.06882804174676,22.123039848817733,16.283238986143452,-9.96924448567465,-7.209976480446431
311,5.309345625424345,35.0734561066543,16.088445972810714,-3.069601034879413,6.3720160387947296,-5.691593162410674,145.7695410656567,-2.7716301545292588,33.04292046388151,42.316542581285304,-79.66436501111298,-54.689280327313426,16.879180345692152,94.16626286929016,-60.05330729105378,24.92994192027368,22.407024879880005,-8.820462408475333,-6.698557972312296
312,5.767909223188127,3.089771393925542,16.088445972810714,-0.5915584513029697,5.066432445330521,-2.8598013433883085,101.31412789954145,-3.552380182615708,26.48496735607482,35.28081456134987,-42.53455299384013,-49.317954724467654,13.65621859186295,56.204070443507625,-57.530909738965526,21.19066975508593,15.324546291460834,-8.150432231057277,-6.738999002361132
313,5.986532005813445,-4.690987223453224,17.27932336881071,8.214707297590689,0.009728363817262973,-4.3059727543447535,35.478613123857485,2.064011575869249,2.512723994942718,19.48503186996718,-13.725781879633963,-23.661647184585153,5.162103337681037,9.421461769387324,-61.338197549566004,9.472979933770699,1.762324702323352,-6.325054714785528,-3.3319437822751143
314,4.703741672288195,8.201746007934956,17.27932336881071,7.4526328871221095,-2.44708290265175,-6.601467675510389,-24.12119957950249,-8.419762583834618,-9.438157480892391,16.385686310471534,1.4302322944004409,-12.943572252045172,9.892541242992758,-9.37836063272698,-45.71757226302332,17.219537700878135,-5.799447970983603,-5.680144446513695,-2.628693196792945
315,4.050925425976789,-5.8139667564959066,17.27932336881071,1.9149331469543502,-2.63306802612359,-7.710948958446306,-25.73008664655012,-16.755578197516012,-10.812889805493919,15.804755423522806,5.714997941568864,22.40922242962443,16.96462686725708,-12.969159275439033,-11.947077278837527,21.715597872330278,-2.7411192975740004,-3.936956080733797,-1.2193771131338114
316,3.6896109598463265,-12.314397096394625,17.27932336881071,0.3528864557589772,-2.4621489902348213,-7.981998552600374,-21.728490114419,-14.850555432123166,-9.749690430788721,15.396509665904617,9.374854217063824,36.56610467846673,18.28081089488449,-13.0909116918657,-4.0897602756490254,22.84856341775022,-1.596597636816284,-3.936956080733797,-0.5235516628181938
317,4.186128841289456,-12.891531502839438,17.27932336881071,-0.3574628624093126,-1.7739091241071738,-5.754566419247477,-14.84628913026399,-14.75534845798662,-6.402046932107904,15.920729411349056,8.336244138083929,26.206716585107397,15.845022417637725,-10.009653245107307,-4.132102306758889,20.217910240333417,0.9213694286477371,-3.9369560807337955,-0.5985808742135059
325,7.274455499987746,-17.712593180709177,15.88855941677599,-2.500505402409313,0.0797504302129866,-1.833143849394134,7.756189331425036,-13.30575689279421,1.642610537618387,18.453298006981985,-2.7078406099549786,15.458917754513665,13.283329873400755,-4.303564781508962,11.80953424073718,12.38977526857368,9.202366045928862,-7.176956080733797,1.0705998121813325
326,6.5911721847351155,-32.86287160908361,14.897568576810711,-3.2261062515583685,0.27762506416821564,-2.7521230264373844,-15.568585529023682,-22.820658037924627,3.4511963430337858,16.986620317548223,5.253112057461237,22.949666999950505,16.31086407344093,-9.81487342693812,15.597118110654728,16.839465520812826,7.610315686701313,-6.445613699559244,1.140894232560443
327,6.134095083820023,-38.0756430270011,14.897568576810711,-3.5720266724093133,0.6408187727477539,-4.148892942812333,-17.443241451267372,-24.45995332804179,5.173391290151509,16.305083691904613,6.695737588544606,28.673894334331795,17.514619527543594,-10.550427325474955,11.123953927504031,18.942795340742464,7.991501560133157,-6.096956080733795,0.40986554909734063
328,6.169960581999308,-38.44758314554176,14.897568576810711,-3.5720266724093133,0.8052948850839172,-3.6370614403184494,-16.782843339616207,-23.85534845798662,6.321266052516981,16.305083691904613,7.2026266345654255,27.275946216010865,16.966874542812874,-10.178802337696853,6.960261630189471,18.487561478876533,9.06967615309022,-6.096956080733795,0.47501904444342763
329,6.372998822545213,-36.406509814161915,14.897568576810711,-3.5720266724093133,1.0733778208764095,-2.8634748185393697,19.695272742879382,-21.63827266606158,7.653771356704132,16.948189462026413,-2.829040391036453,25.693724512405893,15.857893270928338,0.8479637033801712,7.864901445974732,16.45973710542752,10.496254002193815,-6.096956080733795,-0.251249973488123
330,6.59729489750397,-29.548987651968485,14.897568576810711,-2.2630053867364635,1.005340907441065,-2.7461231005259443,42.85024339887237,-17.961036602821327,7.029004773027937,17.916745894128344,-9.889954245387722,3.5392648783544933,12.697684024055901,10.814982112017546,-5.028256268865935,14.525445024324723,9.880713324335968,-6.096956080733797,-1.7388029521684052
331,7.212674197289972,-26.044855872649837,16.088445972810714,-2.123231271923855,0.7882666018764097,-1.4007410862978946,25.815662436751058,-16.662670518472154,5.4227257991762405,19.030805769904617,-7.319876674390765,15.180284571988077,11.533407906925058,0.5446723327831186,6.703897903109533,11.8701074299946,9.894286850336503,-6.096956080733795,0.07706760460013247
332,7.036902381187917,-34.24795799633826,16.088445972810714,-3.6421195112470786,1.0327139721477823,-1.680036096182252,-8.800447315182128,-23.718687160070605,8.033892221977714,17.420884782793397,2.3880369168180873,18.510059489611972,14.685201325675441,-8.95481441127263,11.679582821841109,15.376719263240155,11.440078424959708,-6.096956080733795,1.0748604060160611
333,6.596359801663327,-40.84732000852238,16.088445972810714,-4.643547942409314,1.0491141852308479,-3.189565171191424,-16.62834336495688,-28.75116744020863,7.5823116974658396,16.305083691904613,4.0973018081324595,33.984411444681484,17.66793219345379,-10.00860209162395,14.33039284110817,18.018521002824723,12.527437256843482,-6.096956080733795,0.007215430578112212
334,6.535352524093226,-43.34107875083625,16.088445972810714,-4.643547942409314,1.3064140039304715,-3.630094038065262,-17.443241451267372,-30.02099089233502,9.198072911798096,16.305083691904613,5.026693476126345,42.19819606945234,17.879752164812874,-10.550427325474955,11.04022859967207,18.662072031333267,12.752236145336504,-6.096956080733795,-0.9036099403782836
335,6.294368067667467,-43.391743760938176,16.088445972810714,-4.643547942409314,1.3584890398764096,-3.1626898648520894,-17.09658580115424,-27.49534845798662,9.812717576561784,16.305083691904613,5.708826308164566,37.781477157389375,17.765138454179905,-9.949112571726914,9.560018619249433,18.408969306108656,13.538674720211388,-6.096956080733795,-0.7327406375065469
336,6.438789966688445,-37.51036577317235,16.088445972810714,-4.615538391999117,1.244393507701503,-3.057899826446253,13.400913080063365,-23.44380612083382,8.574742109841623,16.804885805007704,-1.1806747780646092,26.81540193680069,15.939124105193029,-1.9667973437090365,7.55748962971258,17.115061437853395,13.704885910336504,-6.096956080733795,-0.3850914089648394
337,6.62939047433494,-29.100430267592966,16.088445972810714,-3.4409976750239597,1.0733778208764095,-2.2880916177152097,39.77202765577029,-18.39534845798662,6.39276566517624,18.04061349788434,-8.485496075629062,2.8686849583536222,12.520513751918756,9.71138198579533,-3.3857985399830635,14.744973217728818,12.480721815932162,-6.096956080733795,-1.3345096157708098
338,6.7351647525571385,-26.223620913957554,16.088445972810703,-2.5005054024093116,0.8724186472670692,-0.7786017041207476,37.07719022116814,-17.112530835965927,6.392765665176239,18.122231743904607,-7.2006759245300485,2.4354595449914864,10.580791321779246,9.163221722114342,-6.439981380750567,12.546473053956863,11.128116102228887,-6.096956080733795,-2.2320239618450888
346,7.428666892554971,-31.62143764459536,16.088445972810714,-3.749643502027669,1.2561406506593247,-2.3736519531659663,18.7395636320786,-22.120298964797577,8.58668195968865,18.807306893441968,-7.140557777311808,2.214774660345954,15.04867889945917,0.33533027560476414,11.436169729770896,14.368290450512168,13.704885910336504,-6.096956080733795,-0.6077726276649337
347,6.7009378393163885,-37.42514152225807,16.088445972810714,-4.643547942409314,1.6436002588764094,-3.63286377366853,-17.07135505360844,-26.77596853634157,10.272925129176242,17.694969244568373,3.356849197085771,0.993506406720457,17.779789716471047,-7.900128393496256,7.507981423158773,18.369359362805355,13.704885910336504,-6.096956080733795,0.9108322317619695
348,6.102864632550597,-38.656228637938185,16.088445972810714,-4.643547942409314,1.6436002588764094,-5.085626246262573,-19.475558327448596,-27.49534845798662,10.272925129176242,17.213657717904614,5.873236046105371,3.499264500674026,18.792629786812878,-7.877246227474952,8.321418051707962,20.80357567752179,13.704885910336504,-6.096956080733795,1.0641051806647548
349,6.0747407257612815,-39.229256176163425,16.088445972810714,-5.032530669455335,1.64398950812372,-5.003040222256941,-19.07986779576159,-27.492863695610062,10.98137895969554,17.213657717904614,6.1533963811038745,5.666918087133487,18.792629786812878,-7.877246227474952,7.663923052591939,20.766360591323913,13.754378177339602,-6.096956080733795,0.8261728085673775
350,6.766409057664996,-35.202951940392666,16.088445972810714,-5.111707903188875,1.56849533010426,-3.327807722673898,2.2020323074611348,-22.71596831365232,9.678393197378572,18.236318851398227,1.497218731563872,14.229569431109299,16.948883145926374,-2.83347880447936,9.7969990879256,16.076339921420537,14.653733441796117,-6.096956080733795,0.01261382901402559
351,6.956613182093224,-32.34220847393818,16.088445972810714,-4.643547942409314,1.3584890398764096,-2.8258320140652633,24.520357985907403,-20.21534845798662,8.332845397176241,19.030805769904617,-3.9457559919852474,11.652961538971073,15.141119298812873,6.981449742303408,8.36811978421536,14.163733383333263,14.6575356753365,-6.096956080733795,-1.0941399228979585
352,6.966900314872674,-32.34220847393818,16.088445972810714,-4.643547942409314,1.3584890398764096,-2.6790257826129937,26.726766487099535,-20.21534845798662,8.332845397176241,19.030805769904617,-4.931463818246214,12.914553472976664,15.141119298812873,7.370569343008582,9.555867848749747,13.63295947810287,14.6575356753365,-6.096956080733795,-0.9984029077943457
353,7.273768137727362,-30.49162810643386,16.088445972810714,-4.481689657653861,1.3584890398764098,-2.507857868187042,37.49029622099388,-19.35679825081656,8.582776192484623,19.36177804901309,-9.344731909693833,7.127311398561574,14.501833702192021,11.203714632066264,5.084447575135661,13.04176815777585,14.657535675336502,-6.096956080733797,-1.2044960820875563
354,7.119042296848534,-19.714168145938178,-12.425402607488323,-3.5720266724093133,0.7882666018764097,-11.778529815675567,36.7039549651946,-16.57534845798662,5.4227257991762405,19.371991492201136,-13.659389827956293,7.757803468837585,15.266005496002126,6.379719628525049,13.9530957337773,-1.882436439533339,11.133540723399001,-7.243970638640869,-0.4815325543064281
355,8.474918589856378,-20.16590703583602,-28.44324034421511,-4.108755371883285,0.7882666018764097,-26.563894167186458,33.112608271671476,-20.41160412273129,5.4227257991762405,20.721876131324834,-10.752531709534804,5.596764549672388,19.36170242670018,5.165548882134028,-0.09380336742350551,-5.158639724641392,12.14336194716834,-10.306418086985627,0.13077824195751955
356,8.746754776173114,-21.292673186938188,-28.03386597645865,-4.923096685836521,0.8413600598912961,-31.101283135239566,29.499998596556406,-22.510167509443733,5.4227257991762405,20.49142513079353,-2.7547458481239615,2.552050487193845,21.84484918884327,3.7081309561780955,-15.390082974420475,-3.592509354007141,12.786118475544594,-11.253640594016074,0.2843855261257754
357,7.710112063730655,-22.50913693785501,-10.80786117094778,-5.715069212409313,1.0690946995241974,-28.25349268017012,28.346130178060463,-19.165709968332845,5.4227257991762405,18.544611654472178,-0.5393279095787302,5.083671424084894,25.028660965598075,3.5158685939648446,-9.652042031854775,-3.834563841298026,13.693890629397506,-11.16145292719566,0.1480294020580778
358,6.17911995419718,-22.871178227938184,-1.7495598450198298,-5.715069212409313,0.893263690807504,-21.04656615349335,30.546520838732622,-9.276126360690046,5.4227257991762405,19.030805769904614,-6.623881810026036,11.646266644731607,24.606078336158763,5.498070278487894,12.844607553058722,-4.184839759510509,13.704885910336504,-10.4055495614589,0.14879883384665438
365,7.470997406140441,-21.292673186938188,-6.687352393562212,-4.643547942409314,0.5031553828764097,-15.103914459866083,30.546520838732626,-5.655348457986621,4.45268593317624,23.573675899904615,-11.080067850437295,18.07584581877546,17.25051673718539,4.489759696908628,11.924714886925365,-4.040872312610877,15.610185440336505,-8.256956080733795,0.9627367245249033
366,7.31248338979198,-21.292673186938188,-23.65665264012041,-4.643547942409314,0.6373653257356939,-22.42602734439985,30.179997389145,-8.150481493449028,4.45268593317624,23.573675899904615,-11.26190593398145,13.997265378442053,18.95422764771562,3.48707327648322,3.9344151758447925,-6.9570722460190355,15.610185440336505,-8.932545581569373,0.9627367245249033
367,8.2876459802117,-22.6248598537044,-25.95716888881865,-4.947348943955468,0.7882666018764097,-27.74790696247608,26.925022277040792,-15.19378439310612,4.839062694801852,22.978074259704798,-4.883685909456932,8.383053689342937,20.27190614350569,2.1725721459149474,-7.990189196332225,-6.379232462905728,15.610185440336505,-9.7867575404431,0.9729464019618385
368,8.742187216932352,-22.87117822793818,-14.429601541134625,-5.715069212409313,0.7882666018764097,-28.1636486340253,23.33846804939549,-17.02102255589479,5.4227257991762405,19.526729460592513,1.7230265592376655,6.388264353623764,19.424520926598994,1.0333574325250479,-14.202699141838512,-6.095248630823485,15.66069336738078,-8.256956080733795,1.141445784874375
369,8.09628593281991,-22.871178227938188,13.05781145433412,-5.715069212409312,0.7882666018764097,-21.445134000135386,25.827285236708583,-11.889261987921074,5.4227257991762405,20.31145714281566,-4.852929128725359,12.837921349897853,19.705507408812874,1.4652596258305703,-1.5916254243640982,-10.956052503722166,16.558486625461942,-8.256956080733795,0.9732476087038217
370,6.892607513367994,-21.292673186938188,-12.75392472516762,-4.643547942409314,0.7882666018764097,-18.69651615562529,29.092567803822366,-6.279000315114726,4.45268593317624,23.573675899904615,-11.454597603014278,18.933876250201177,18.88959746412216,3.587748320721537,10.846332828396553,-5.410854550629763,16.562835205336505,-8.256956080733795,1.211902068945837
371,7.34932768998666,-22.159312600370857,-23.68065342238291,-5.1507495742057765,0.7882666018764097,-27.001360161046286,26.290529603190713,-14.670636983356642,4.839403692685127,23.573675899904615,-6.115657414859502,9.48345094095389,21.92197031396615,1.9607978841416331,-5.142171824284592,-6.969390626718158,16.562835205336505,-9.675324488628593,1.1685316208709888
372,8.471790531329946,-23.80054886732878,-22.165464797098604,-5.715069212409313,0.7894822868282403,-30.804964954843882,22.13360516722893,-20.01294809210125,5.4227257991762405,22.902703909830972,1.4076963969722538,4.448180245066132,24.09931531290389,0.17462801651364593,-19.021924849356488,-4.60149109195498,16.562835205336505,-11.457769705354501,0.9733767021094577
373,8.179911033886246,-24.44968326893818,-18.682876150665823,-5.715069212409313,1.0587823441547877,-29.689376397311417,22.01500754273262,-20.21534845798662,5.897054671057572,22.665101873904614,3.1257661017779608,4.072959038910901,25.062645726755537,0.14229706652504784,-20.43998138075057,-4.116964543879017,16.562835205336505,-11.496956080733794,0.9618856716330688
374,8.23928494878121,-24.449683268938188,-3.607531192494728,-5.715069212409312,1.0733778208764098,-26.180921554671958,22.90522565414338,-17.95237260309723,6.083171043637202,22.665101873904618,0.5241499005584631,7.54515404859928,24.89142222648401,0.42668485969664044,-12.184158969345335,-6.264491510490198,16.562835205336505,-11.15226695714043,0.852473003433355
382,9.756342608828284,-22.87117822793818,-9.550098849247588,-4.848312665323342,0.5120139395384725,-20.56038967450867,24.646943050997642,-12.600731903765386,4.45268593317624,23.545446023440164,-8.315506098757526,21.147674348172345,21.38375535948359,1.316560736539482,7.964360342379324,0.27165079691920707,16.562835205336505,-9.543341065277454,1.3527683723208686
383,10.416105486059237,-24.980328253846594,-29.97022614491085,-6.102375882354481,1.2901591265536354,-34.49063053804976,19.07795391476541,-23.575824548341565,7.407770295933419,25.222836395376866,6.879994123155216,4.60189560276059,7.850924567608663,-1.2576905408510206,-23.6428122271907,-0.5760202902157091,17.814760588285676,-10.608279895156409,1.9976837796407672
384,9.547343304330795,-26.028188309938187,-26.076178408948234,-6.786590482409313,1.6436002588764094,-34.601721751065554,17.749250894732626,-21.319355961135862,9.302885263176238,26.669526152463067,11.102872048783716,5.247944108517478,-0.022494367157730705,-1.6398236654749525,-26.305037046792755,0.599650691384098,19.420784500336502,-9.336956080733795,2.3519072510267414
385,7.748456325867883,-26.028188309938187,-14.230958368931745,-6.786590482409313,1.6436002588764094,-29.202178146984316,17.749250894732626,-17.630681975805018,8.760883630182262,20.212404564284594,9.684302167367537,8.342766012370824,3.7399822425783626,-1.6398236654749525,-23.596688762358863,-3.7882825837597203,19.420784500336502,-9.336956080733795,2.2214262476588673
386,7.819709494263621,-26.028188309938187,0.19943839568135008,-6.771540573275592,1.4459614667365503,-24.100807906635374,19.787643684086984,-14.342173281443165,7.874202461181569,19.030805769904617,2.910110140077013,16.806773955231396,8.66751079910435,-0.27950439243862685,-9.916124490219369,-6.543889701548332,19.420784500336502,-9.336956080733795,1.9964666648926537
387,7.796682262585807,-25.62023254875021,8.033557694807751,-5.756500605074768,1.0733778208764098,-14.233079036651779,23.109347050325333,-8.379164188137548,6.430273182492618,19.463974975567208,-4.948059415182216,27.4251054713984,11.454311526221792,1.627456259927581,5.252661113871673,-6.833419170966974,19.420784500336502,-9.336956080733795,1.7020617710531791
388,8.562829852093223,-26.028188309938187,16.222679987648288,-5.715069212409313,1.6436002588764094,-5.941188024065262,27.34720335273262,-7.475348457986621,8.332845397176241,25.39082395190462,-7.336186233860287,31.792959038910897,16.966874542812874,3.706538530525048,19.56001861924943,6.91731387617004,19.420784500336502,-10.416956080733796,1.0041450188631205
389,8.602203926699236,-26.028188309938187,16.088445972810714,-5.715069212409313,1.6436002588764094,-5.379286118669722,27.34720335273262,-7.475348457986621,8.332845397176241,25.39082395190462,-7.2881445567617735,31.792959038910897,16.966874542812874,3.706538530525048,19.56001861924943,6.853933080333263,19.420784500336502,-10.416956080733796,1.0041450188631205
390,8.612838514093225,-26.028188309938187,16.088445972810714,-5.715069212409313,1.6436002588764094,-5.227521411065262,27.34720335273262,-7.475348457986621,8.332845397176241,25.39082395190462,-7.468496368336117,30.76733493162017,16.966874542812874,3.706538530525048,19.56001861924943,6.853933080333263,19.420784500336502,-10.416956080733796,1.0041450188631205
391,8.612838514093225,-26.028188309938187,16.088445972810714,-5.715069212409313,1.6436002588764094,-5.227521411065262,27.34720335273262,-7.475348457986621,8.332845397176241,25.39082395190462,-7.3379338221187025,30.532959038910896,16.966874542812874,3.706538530525048,19.56001861924943,6.853933080333263,19.420784500336502,-10.416956080733796,1.0041450188631205
392,8.268655042665355,-26.028188309938187,16.088445972810714,-5.715069212409313,1.6436002588764094,-4.260402435883895,27.34720335273262,-5.839514832300215,8.332845397176241,25.39082395190462,-6.307142053395105,30.532959038910896,16.966874542812874,3.706538530525048,19.849563057806073,7.486009046782788,19.420784500336502,-10.017876701992419,1.0041450188631205
393,7.737171668659398,-26.028188309938187,15.818431041706097,-5.715069212409313,1.6436002588764094,-2.499978623027861,27.34720335273262,-2.2308459207205824,8.332845397176241,25.39082395190462,-4.780729713893703,30.532959038910896,16.966874542812874,3.6001997363434195,21.56001861924943,7.4840845732609775,19.420784500336502,-9.301596009761754,1.0041450188631205
394,7.057172035141402,-26.028188309938187,6.091286318167108,-5.715069212409313,1.6436002588764094,-2.6438864892002543,27.34720335273262,10.58878060820012,8.332845397176241,20.98575299328726,-1.4722540590757125,29.03421107193099,21.05968750197505,2.815478164525048,18.87538213950389,7.629305823164815,17.870258056318427,-5.78092419051602,0.9234302103898941
395,7.909266593286384,-26.028188309938187,12.665448753962288,-5.715069212409313,1.6436002588764094,-3.285014404585562,27.34720335273262,6.676159043313347,8.332845397176241,19.01145024803155,-4.782619337208785,30.00881740676805,22.189743722948133,2.815478164525048,20.57872033856016,5.930987817940811,16.219250358034103,-5.567055009161589,0.8334474388257033
396,8.08934061486799,-26.028188309938187,14.886086999689423,-5.715069212409313,1.6436002588764094,-2.2833069491380718,27.34720335273262,3.4446515420133794,8.332845397176241,19.939379795904614,-4.977812155795451,30.532959038910896,20.911108144375422,2.815478164525048,21.56001861924943,5.729348418333262,16.562835205336505,-6.096956080733795,0.8597156756003181
397,8.120377832093226,-26.028188309938184,14.897568576810711,-5.715069212409313,1.64360025887641,-1.8403791680652635,27.347203352732627,2.30161969915768,8.332845397176241,19.939379795904614,-4.977812155795451,30.5329590389109,20.618385030812874,2.815478164525048,21.56001861924943,5.729348418333263,16.562835205336505,-6.096956080733796,0.8597156756003179
402,9.899302391181184,-22.78577053242684,0.6610410022995967,-2.4405367671538216,0.7507953362150204,2.9153659603494755,26.140605464986333,-7.424454515327089,5.044056750929113,23.573675899904615,-10.289134878946234,32.241461577444895,14.868936506310199,6.379719628525049,42.82333360001462,1.600060270341906,6.559596364261569,-9.995362508715697,-1.238850504915056
403,10.907184871836114,-16.757081537636545,-42.13763138584361,3.13431579701505,-0.588105280895632,13.261193787590313,19.125820716518973,-13.282402745831918,-1.3375416891603482,23.250071485155523,-16.588097694522975,41.41989293393256,15.998728856128725,3.147420653883512,91.79207926260489,5.690376090699496,-4.871057015072491,-13.685731444479313,-5.1710372727200475
404,11.938600320371854,-11.825018339636731,-51.524353941389336,5.851074870994012,-0.9224007121235903,16.483540777911326,13.622542466237224,-26.71034232310457,-3.30763299482376,24.689880405514337,-16.006719275853825,46.20205347839259,15.465357790065696,1.0333574325250479,102.59038729541702,8.71131168738459,-8.206058684663496,-18.49233440508456,-6.598478854757686
405,11.572732805571965,-12.686759139215866,-55.311716969652174,6.239038910713134,-1.1059355280975072,14.327486925249644,14.548410178200351,-34.43988981341303,-3.3076329948237597,26.035791226974272,-16.440340926464767,44.032399872707806,15.854511333795857,1.5217123862612025,96.96755208675249,8.622976256998001,-8.692904087119603,-13.274112867951962,-6.96890915581758
406,9.759929549468929,-22.06429088301305,-11.702391621307317,0.7841785561048564,0.2369350294396911,7.444262556936926,23.684090337803987,-12.299029316441766,2.9050219103167665,24.158665681331463,-11.757250895979967,34.06497306370397,15.138808204826589,6.260113174393179,59.878814339021446,2.1467240996112347,1.1696251342667312,-10.349428978850849,-2.8778799594928883
407,11.404980652936265,-14.978212905687402,-40.233302703617895,5.9266861236398185,-0.883824683619101,17.228613360008733,14.700815313344004,-23.554335057795114,-2.966960101067226,23.88470407002571,-15.883425915368019,45.17641283913196,12.837632045762454,4.016993632039176,108.32279213096761,4.53400019403347,-6.996144247954967,-5.592055945631199,-5.8613043838386405
408,12.378926009724786,-13.400147981938181,-44.864596110408826,6.071664757590687,-0.9224007121235903,19.49088173008887,13.483494246732626,-33.64241141965047,-3.30763299482376,25.675326649750644,-15.894930957749127,48.56517754445648,12.402486432812877,3.706538530525048,115.26447611584503,6.442671516646098,-6.924834458161299,-7.176956080733797,-6.661969713292044
409,13.118588645069046,-13.548764645664573,-45.83717861918929,5.456001580928845,-0.9224007121235903,21.32183420381376,14.096237400392575,-38.280667025277396,-2.987893444089707,29.319626937102374,-15.957749507079743,51.185938916946185,12.101588406902824,3.9288368737699666,119.23677716497092,7.946963039573732,-5.677326891190198,-9.558039997042375,-6.893585518149691
410,13.321365395176848,-14.978653022938179,-46.09222106666086,4.008948935267155,-0.9224007121235903,20.307287684677522,15.616372570732626,-40.60424522800895,-2.3375931288237592,32.37652602651321,-16.703036313122382,48.39543373722322,11.005987713314376,4.597598896525049,112.66840583751828,8.920597733983742,-4.466875126026066,-11.415993754068472,-6.600532232006065
411,12.970539407351337,-14.978653022938186,-38.77673201652008,4.847784312352422,-0.8818608634110988,15.30069913640142,15.640745031190745,-37.90960152073288,-2.3375931288237597,29.318197443845882,-14.537347286099127,48.76461456693292,11.081813758119457,4.1249518569895125,115.46860239476491,8.540810073333263,-5.9779780273873495,-10.263391318312115,-6.895739245693024
421,11.110601123151739,-15.575004578811452,-22.212222427775963,2.9426705324324947,-0.19740508169953067,9.53647581357538,18.754047771733998,-22.66352727547168,-0.010130174834417699,22.24125977340637,-15.242326190990937,38.20734623986456,12.613396774993344,5.491446540620302,76.59634023786087,8.326634368094041,-5.119237684441426,-9.010214879651448,-4.32075184864885
422,12.146148607208607,-2.8243914838311084,-43.61341384437106,7.143186027590688,-1.4926231501235905,16.755643334424136,6.458028983951433,-38.85011656524089,-7.006096738746737,20.313674387825618,-14.163774143070423,49.33759255033035,8.887429513204868,1.1678309979046804,101.4725805847696,12.06941149044601,-12.862537138592936,-8.256956080733795,-6.221320077846038
423,12.136883149316777,-2.3506126949381816,-45.83717861918929,7.143186027590688,-1.4926231501235905,19.02617692911458,5.805259154152478,-42.28327768939113,-6.217752592823761,20.84854441129312,-13.702533033268683,53.06842751551854,8.750975944812875,0.14229706652504784,110.57943262948318,13.601441052333263,-12.969307509663498,-8.256956080733795,-6.854632338798053
424,12.342779760804058,-3.052776028237534,-43.10266370871286,6.480483344810596,-1.4926231501235905,18.28374791143924,4.951980950732625,-41.61990307470028,-6.217752592823761,21.368542785274762,-12.565794933686627,53.212959038910896,9.08480704030896,0.14229706652504784,113.02494918604424,13.253680679587353,-12.373400706158627,-8.846352240456266,-6.865382577670646
425,9.786189736792068,-14.733998500332534,26.053065182183026,8.302911049216048,3.7682661278397362,1.0301162596017315,64.35589262617442,-29.76215560196446,20.000101862711418,63.51492246650962,-25.325828158410474,12.485520830890055,1.8097120182582171,21.52539536784557,-30.408841622384553,0.20013271229329646,50.27787711697182,19.14020098204916,-1.0929327807690432
426,8.720436159581787,49.86841713006431,25.43349143499316,41.745687484816806,7.152723103853759,-0.17021693916779326,136.9916791614705,-43.30471580419187,36.813310068715,104.10518644528196,-57.86757750713421,-4.187041465531284,10.770131615812188,70.82753766017002,-62.146522644311325,-3.397472069069634,95.89630402012556,69.91388488146066,-15.645902714102608
427,7.5417356693198485,69.69767624919078,21.277254451226245,34.433316986336465,8.319870477150364,-16.28042072165861,133.61829648186708,-35.58687797400298,42.80957700596814,103.76288638999675,-36.44187979279162,-10.736374851843738,41.301901285519314,93.92627741309276,-42.643178194321244,1.4293921519910038,93.74916910394003,91.45012938516129,-21.965133224555302
428,8.459974736127528,79.74574713908038,-17.333881513271248,28.25368314927875,8.86017121666023,-23.99875604127168,130.95795954013664,-39.72590704171961,44.911029551151586,102.6196161619046,-30.874067061671102,-15.442307830059683,50.22697735390748,97.79710289986859,-44.14383194114942,0.8666982544297066,91.83259767857653,136.600566577096,-21.254048373986837
429,10.329664660519505,81.09943517953675,-26.23963061234036,31.860449203328034,9.570612253566996,-36.30867120701311,132.62834494461424,-36.075418488545964,47.99083310535191,104.40388685015823,-29.05580398122645,-17.083051071450132,58.65340202434346,93.44093175263022,-47.17913624461906,-2.4168140638620135,92.45400447216406,126.98559998962405,-20.158787938927336
430,8.217893673258907,30.62637471014628,-16.35570884336007,32.86167783859558,7.698369826486664,-30.12529917744198,112.1632480254492,-21.440447729863493,39.46172362137704,82.84013462442894,-23.031160748505336,-8.254515549264738,47.137984884531306,54.2214710631044,-44.42119812942752,-2.9890381581086207,76.19918876887445,46.26397520652933,-12.277177256655627
431,6.087874610506755,-21.190147043840785,-9.567209027467456,8.278725794857209,2.7034957175031247,-14.116031085588025,60.86679339248236,-10.953148263490153,14.665794149909868,38.84491466014326,-18.124148084909947,5.414656818035006,24.754153020949797,15.28315909863307,-26.640748102953875,-6.902896107091344,37.08361656913871,-2.8618614579744213,-2.411434500791118
432,6.778617378062531,-13.611919202154333,-6.98051734214286,5.000143487590688,0.6147358825877285,-10.469549053136287,37.31550717725031,-9.295348457986622,5.642202235838507,29.248821967773054,-15.381561011968019,7.06092401874288,15.365880808056499,8.152050857243701,-23.69717982546171,-5.516498201666736,20.980815074283555,-12.154289655642247,0.4168808343671804
441,9.397945662937818,3.913740296231191,20.353992042769857,23.32731015983419,5.088891996741665,-2.2172517417670794,91.90955829841218,-26.673119201138324,26.14420393312469,79.05273324657188,-35.18605851775311,0.7131970770812396,17.04197534700055,34.71491707028121,-38.235832689081455,-0.6121769096967413,70.8521029431859,40.88736294912601,-8.553399415785314
442,8.818254896320312,56.658096047374016,-5.08620867038234,42.56646336344168,8.032607799387327,-9.543177056421428,135.9728465291936,-35.12974434577501,40.51438758036252,102.39750226752922,-49.78296033846198,-1.3901126976331692,37.81476504236922,69.96066249075825,-26.57128950612959,-4.0924865938514134,96.94246784918737,72.43168254568813,-17.84162652331526
443,8.88324229570227,79.59750655370654,-24.288460546497664,25.062105279037418,8.974424865068222,-26.69171102899965,128.7959759164047,-42.61984737051447,44.93357825139994,99.10706823800268,-30.635958290834154,-11.024758472671328,56.408039063253455,91.74237936979767,-31.64134370424448,-6.398141836161215,93.73505196434058,68.31257597357502,-20.829978280012185
444,8.535538993441973,102.88091845206472,-21.56714094171345,27.253840299760753,9.05649195287641,-32.342852329696754,125.45960625673263,-41.66221460277772,45.19436030517624,98.98532005790462,-25.80932417945055,-14.667807695012161,57.98609131473426,96.62154841123238,-39.9279842947022,-4.439529918400097,92.77481640533651,66.84045411928541,-21.06827752811684
445,8.18516011416504,108.69799659653883,-20.82875330318929,34.25376271572274,9.05649195287641,-31.762190643045024,125.45960625673263,-39.02336953479351,45.19436030517624,98.98532005790462,-25.9147480819463,-13.408258783129995,56.97755970394038,95.12857333932614,-40.43998138075057,-4.46277227059204,92.77481640533651,66.64157735417793,-20.518617982287278
446,8.002715592446037,97.0567146113698,-15.258691711371416,47.82376220154425,8.974999830487064,-26.92057637320208,124.93116784211435,-31.43468125537637,44.9107560269652,97.83192964036719,-26.60704363551753,-10.20676997399997,53.002983835423265,89.24602031503024,-37.69051153677546,-5.7809315836024595,91.84375304705426,63.20587716566554,-18.811717310361548
447,9.714947475087962,-17.370330969574788,7.752304200810712,11.450889560194945,3.7403254115817894,-2.7859137847066675,71.99778322742951,-14.17874431601715,19.546686506068045,57.79246479331018,-23.63764582800288,6.905091376331727,22.12348260826474,18.453425179770733,-23.413714017698318,-1.0460429896701169,52.97096896742619,14.296855276569445,-4.629691710701337
448,8.140457052544594,42.92381090458521,-9.791769013851122,36.23565897314385,7.650998111804529,-10.887403747510492,127.21095509763335,-28.076063133988566,39.08591043741147,97.50971551801449,-45.47584467793472,1.393243421981241,40.13414486626702,56.67735742647356,-20.298525238582034,-2.631967786339061,93.8264523546394,66.41757867153103,-15.703714344149025
449,8.391107049540924,89.21124931872424,-21.27243473850839,18.297947486996744,8.97758188695911,-31.155570823618923,133.98267955496092,-34.87317438309537,45.62806563479308,98.98532005790462,-35.857846172170476,-9.033408516181094,58.263496391709175,87.60630775265132,-25.22202754828304,-4.119205405665412,93.85543110089064,61.641308833309466,-19.337887005772284
450,8.283536588560617,106.29291874390803,-16.03497504353479,12.219711167985132,9.05649195287641,-35.96439227927668,128.8156863385989,-37.41767447864056,46.16440017117623,98.98532005790462,-28.240346631837387,-15.486960274389748,60.23088744318517,97.84097986569286,-34.42498112675529,-2.4761359484847647,92.03332320723707,65.00566257235329,-20.282694275787982
451,7.979026188774626,114.87352738370107,-14.655600965733074,19.89317310492507,9.05649195287641,-34.64376594265543,128.65892374273264,-34.616291800085094,46.16440017117623,98.98532005790462,-26.99183103435259,-14.148352151073817,59.41382686719194,95.40788310555556,-36.247366935491364,-2.1427442156667365,92.61167234744173,62.40020687702438,-19.84260009223287
452,8.349881946344626,98.778574353989,1.3969413202605028,39.744021797190925,8.98701459888668,-26.117891201743717,127.87591215773853,-29.110769347842325,45.53790736785024,96.2620601711415,-27.766287738582616,-11.768691119797449,54.17231813432838,89.29751597659228,-35.635881018420015,1.234940578691442,91.38414347295974,58.26059831444956,-17.825862507256993
453,8.199000354097146,32.00771900545751,14.775205953368735,30.867309219321434,7.5786563574641646,-12.487116966213147,111.37333626036917,-18.95175368647444,38.042463306267756,79.94267542384019,-25.537181805446433,-3.7905526382323287,39.82544682437829,55.15710801994872,-29.85359176622614,10.124820900347498,76.35752626259173,34.5609787046406,-11.590144848453516
461,7.5534881128600135,14.462135653314455,-4.355012175426886,28.14016759021142,6.626050862195723,-8.610369499398232,108.57317827301904,-20.044119045520784,34.08916395280902,83.32622095319164,-35.958225769326916,8.422920569087102,32.62143744734715,42.73364172410521,-19.068721789250475,1.2372773348177193,78.59122455708587,42.09429232294035,-9.624288307250035
462,7.057159793588112,57.25711619056529,-27.249589054320897,18.64686896944089,9.204230222210654,-31.146331402449004,132.06656239938104,-27.923341516088712,46.12504765404122,96.43019136765854,-34.63410036868993,-6.494064434321704,55.15438345950283,87.81391003931785,-26.91555242189257,-2.075139897349617,90.54748812952232,55.24963700100403,-17.064492354620118
463,6.861137887827137,76.04301180130679,-15.560710386653941,-16.215084244181888,9.62671439087641,-35.761633341112116,127.59830469345644,-30.966002337717768,48.104479903176234,99.9126470080138,-26.345807757948094,-20.53514673196257,58.75699972244392,108.30565462101248,-42.13531793039747,-1.6204779420140307,88.45388268047319,59.62133517349675,-19.06279694368858
464,6.564736582532432,85.83354767784728,-12.486671983659926,-15.784429393782945,9.52224931557721,-33.694534722834305,127.59248458073266,-28.77697711283333,47.89515909415855,100.79793656146016,-24.260820952457966,-18.64647831583994,57.47077760336748,103.1452507859782,-42.00840982095306,-1.4040480148817545,88.96421734533651,63.492953997114974,-18.62111328905316
465,6.554034083526207,89.16515903219752,-7.425383434757331,20.888019502427287,9.208283347232127,-23.674030297374475,126.97635068304206,-24.012584992535846,46.27798597479428,97.63237636859115,-25.47359831752902,-15.50779677073463,49.78484610321565,97.2490321750735,-38.97364265444252,-3.32103192560412,88.33689931150747,53.70950982105247,-16.90110684944272
466,8.348959169878924,31.921728916713704,0.4060056112059363,26.175231110446543,7.893181631949796,-10.177631291183232,112.57369224480038,-18.95520811082179,39.919521216087425,83.46333264527473,-24.062366245114866,-7.3379533761930125,35.54759478154568,69.96135549069596,-32.24446471880656,-1.0166988965412977,77.6516843981934,37.60842822020301,-11.990575448210652
467,8.240365790859526,-12.118834593588723,8.348238172502354,10.548069464027252,4.586439736800858,-5.341387139626426,72.33139181644631,-15.125582375566266,23.746979934998958,54.967244958999544,-15.345933108452604,-3.2558010338567245,25.55980095252904,28.428489092675893,-35.03782726316579,6.887447395673848,50.074224721798444,2.711384854876079,-6.4112437252639465
468,12.288362923188764,-18.070979962245325,15.621093436360468,8.847692449694772,3.639378791876409,-5.006970565662869,66.95729081287372,-14.851479004270278,19.682305018184653,48.59423787594776,-17.44144970856613,3.63167981989822,24.73071788004563,16.50953275733322,-25.80779793305568,9.984315717986794,45.420168438264625,-0.3655808242709426,-4.7226766024707505
469,12.064741919690238,-14.456167142573545,37.3977559772235,8.565352096404597,4.006354213057773,-2.5347291164806434,83.38491803180347,-18.90072938577353,21.53331602229808,37.59283690165539,-31.917725205331557,3.1478840202855976,21.628432079468634,30.61738504542424,-70.05786011392227,24.988719205746996,31.333210701776714,-6.207709826636029,-6.527113676049247
470,12.573887289763164,-35.821664466675976,59.7114933969141,10.412606931661733,7.5198152936643075,-5.759674484160805,132.27983658365258,-47.157783190857025,39.184120696979214,15.520763495588513,-45.3827292211896,-4.691401053613431,9.234462226951006,59.337525506272314,-217.1572738047075,29.09774798802839,7.084349019513451,-2.291105387873981,-22.072500908424672
471,15.97972054023099,-49.439927813097455,78.87406252021185,6.420856311838516,8.704195891497179,2.6866154756884337,142.84355752683345,-66.88168706879188,45.70667636488808,10.990911602264909,-47.071669224353506,-3.596535789210343,-0.9141492875348924,65.24321674961419,-238.55241989401372,23.834640546215386,11.819184072287038,0.9571344935780144,-24.57456897108898
472,17.148640767797268,-50.50646466312926,78.324837644562,9.607920929999779,8.771380733876411,7.237564145866138,147.40021656774425,-61.380531307149155,46.16440017117623,5.6486043486248505,-55.80164905409414,-5.547790828000782,-8.276293943979296,64.67104326062434,-275.5488318420082,22.199634751879916,-5.0121035397214255,4.51888064272956,-38.37410122648024
473,15.826386369731548,-48.317301813011305,73.07856834740275,10.015941467509288,8.688888385854506,5.7331115078582675,140.57410855621842,-46.09779215930848,44.955410445413065,5.710429583633777,-50.28604678337136,-2.081001089998594,2.9248696668459213,59.53315848741671,-199.12062088024095,23.67277860166697,-6.414356571099268,5.157098448043735,-38.591905881180196
481,13.067895548724454,-15.58093290699312,22.095309710563345,2.7203379866965354,4.596939639188076,1.6724687201192792,99.9463820435433,-24.820679881757236,24.778444869391777,20.346532570498766,-45.01258171801396,13.656958446538635,10.532146490624118,53.27915440644849,-115.91540637269146,11.311758923674184,22.211921266264966,-5.699543549877694,-4.936586559336309
482,16.576417161196517,-57.675324372037615,51.51062814088384,2.455984334206471,9.319061730518207,5.313609144215021,132.85345055721723,-85.41154920893572,48.224902012657914,-1.2365479058077071,-42.35925171521316,-30.22566582251376,-10.784708073951581,85.05453723885284,-317.2522755286655,29.3868863782475,20.922573207583635,6.4333670360834665,-25.91369469569764
483,16.735693810690638,-88.2684416585129,54.182156223411155,1.789638825118482,10.100510384404066,8.038046826775355,131.12199972764273,-101.83348855379174,51.58413822854576,-11.067150445171855,-45.39642729473946,-50.22922290559525,-25.981454327977332,80.95289460737791,-322.43998138075057,34.546389486140065,-2.1540522011100807,12.263043919266208,-45.06583513843614
484,16.52939456545761,-86.35280451504723,53.016269191376594,6.0962774532062785,10.026119256095823,8.8062345354955,132.1264582851965,-91.11851277124312,51.12106700229382,-9.134989036095387,-48.85464744539476,-52.37724318842736,-20.55196446338287,78.77895813243875,-314.32551023591407,33.83643548494588,-13.217557102715936,12.263043919266208,-55.54241073217388
485,16.026705866049785,-70.93864329490494,51.741799716928554,7.611740113800995,9.788651159734204,7.6404522207204675,125.97518158100965,-72.19499551232418,50.11863657287319,-6.400802927908561,-39.02016751769196,-44.49319091327045,-12.367525543831768,75.27587493137761,-255.0330134226106,30.737119963586323,-14.682826479968053,10.34396752446366,-55.05475571336945
486,15.426872347762046,-51.28396712600011,37.60691769144451,3.4435050062935892,7.03935757684971,6.481406368389229,94.50528209837472,-48.523410701490604,35.85156898602699,-0.444725914187138,-24.636366577910003,-21.644481742409788,-4.4252133629456845,47.1454531498981,-135.93508182859307,19.466720992194023,0.5042304817111453,7.194390498557897,-25.198869610589316
487,14.533059785171531,-38.48571317674651,35.142484308810715,2.8571009475906877,4.707909114496283,5.988367028223997,73.96126760789373,-35.15899359400537,24.266010802011007,0.859325249904613,-21.46532587160426,-13.655574454016504,-0.4419433263703958,30.342094151617953,-94.64552266797223,16.754347590950072,3.599903777790704,5.858929770346837,-14.458738742934946
488,13.42649253085357,-1.469101039322373,23.150369465669673,1.219613151799651,5.063088176695792,1.744772424393522,106.53301565184347,-25.61819218477153,27.504232577291287,27.36481174634452,-47.24331997143112,-4.348937225434104,11.926760697551106,55.69517834876833,-101.96292357662131,12.47346677183502,24.75666038392239,-5.291997295930652,-6.349538697336474
489,15.933737293747365,-30.714352533556212,47.46948264331175,4.493378199333907,9.222503261405238,6.232435270217052,143.3791174595431,-57.19150257722717,47.8817615735271,1.9648205758180086,-46.97653490714737,-17.74174390690791,-5.154598867976717,81.12473295787788,-257.2251333751735,27.77453150556902,22.005473777619514,5.29494837776718,-22.749007861260115
490,16.099209634229343,-59.72289955658058,54.19652264481071,9.544125715556182,10.833490596424992,7.874615457865323,145.415773331837,-64.1164476701545,54.37352641336695,-10.984909612943518,-40.54223555270542,-15.856422849883506,-19.70335411376716,75.89970560666572,-259.993223002568,32.41048798533408,-11.230935244293725,13.443880013840994,-53.18606488785298
491,15.895478386093227,-58.40403527202121,54.19652264481071,12.500792377590685,11.052270485876411,4.967195342934737,144.70927332456952,-78.99051427564628,54.894758965176244,-15.139791201228993,-40.47946760738145,-14.152250617643126,-23.571618566597355,74.99136781052505,-255.3824185046213,33.2457592740926,-20.590505629663497,16.36622274795996,-64.49206170643293
492,15.895246030831403,-56.574771198153,54.16519492599546,12.219509286857868,10.79603636927491,5.674944116024452,144.48183840807184,-73.34744078293564,54.3861695789922,-12.40855963851043,-40.18776218283365,-14.793894874145286,-20.63451107312619,74.06715309155538,-237.05608501242529,32.409779998141595,-19.234790856182137,15.086705000977934,-61.79232660209835
500,9.579477160893342,-18.76332213855201,3.0018174363912298,-0.3574628624093126,3.82784975711621,7.570499539059808,87.97116650200199,-5.817877429719601,20.509533438710996,24.136638736473092,-34.62478481203913,8.718847715486564,20.618385030812874,37.58536871783369,-44.289771271898125,1.8055037386410198,13.363181132697038,-8.256956080733795,-7.759493281017765
501,14.28811544249117,1.6924360453639529,18.594705678629424,-0.7674767652866605,7.187963055347832,2.942514137558596,135.30496005212683,-24.194603140054753,37.39942772770169,26.30664196188106,-60.33850225553807,3.01704221675768,16.280169174526808,82.23311477065084,-123.9867489498617,13.456225104899893,23.982578686778407,-6.972535378343099,-11.145585714354443
502,16.52246430943454,-26.90059186772628,43.612419982575375,5.991706722413336,8.591331133386108,7.406987210187326,140.97598039548896,-52.56269154339462,44.319065441647396,-2.2480629978223514,-52.583582025336106,-4.106065880650128,-3.7333539580744888,79.92112686643614,-196.74851593438524,26.27440402591758,2.970713251889826,8.464682474202188,-30.13785932088755
503,16.70233649478492,-30.26636314826429,47.496978360061085,14.624231048392355,9.42405733019401,3.69768705433018,140.4068359925443,-95.8920155684704,47.9440742271729,-20.940714161526568,-51.939707601791845,1.9803085579308024,-24.729122256102062,76.796199190053,-215.6735498588432,29.49098254792105,-30.695876856302334,21.41590850089459,-67.09669811919039
504,16.514851307946753,-32.04185468966957,48.242135664810704,15.511469940787872,9.62671439087641,2.4003324445619847,138.3795755555602,-107.78692883057036,48.677088134639845,-23.181516359338584,-52.81865355379192,5.10660938255361,-29.810783021604962,74.99136781052505,-208.3330424470582,31.032503313333265,-39.59344141713572,23.5065469123591,-79.96169198013229
505,16.14486187731299,-32.67413273650317,47.99172081582031,14.035793340182817,9.415907719066656,4.223167543982063,138.00277605754374,-78.97182580771886,47.65110744993536,-16.05873819492626,-49.9137414815313,3.7844607421885166,-21.164871365433452,74.31990535953226,-199.10410625819145,30.253584387068678,-29.974110339251958,17.698042798228265,-65.54956627067004
506,15.848693673144126,-35.139615189719194,39.89182617539996,1.8276539678125925,7.858131047900771,13.019352695734817,123.90428301744056,-32.05491904649091,40.204640155899085,12.573921380469221,-45.41909246556693,5.638270947891605,3.7421712165741563,60.2300696763427,-104.39897990377948,23.176079132114765,6.124898861775387,-2.9116655255091826,-24.01519060637474
507,15.044115845727196,-22.048530452174393,27.631480635584968,-2.500505402409313,3.343747509647154,10.351181162827565,75.97375574112534,-25.50581295589627,18.652641281840854,22.250724672243766,-28.775758895731794,4.963356708103097,8.37774125044917,29.526178934412872,-60.72125282160818,14.180567322776383,26.224950850717104,-6.655537524278776,-5.243700995940591
