,0
0,20
1,20
2,20
3,20
4,20
5,20
6,20
7,20
8,20
9,20
10,20
11,17
12,17
13,17
14,17
15,17
16,17
17,17
18,19
19,10
20,10
21,19
22,19
23,45
24,3
25,10
26,1
27,1
28,1
29,1
30,10
31,10
32,21
33,21
34,21
35,21
36,13
37,13
38,13
39,18
40,21
41,21
42,21
43,21
44,18
45,17
46,17
47,17
48,21
49,17
50,17
51,17
52,21
53,10
54,1
55,1
56,10
57,18
58,21
59,17
60,17
61,17
62,17
63,17
64,17
65,17
66,17
67,17
68,17
69,19
70,19
71,19
72,38
73,19
74,19
75,19
76,17
77,17
78,17
79,17
80,17
81,17
82,17
83,17
84,17
85,17
86,17
87,17
88,17
89,17
90,17
91,17
92,17
93,17
94,17
95,17
96,17
97,10
98,10
99,12
100,2
101,12
102,20
103,19
104,19
105,12
106,12
107,11
108,11
109,19
110,21
111,2
112,2
113,20
114,1
115,1
116,21
117,21
118,21
119,1
120,21
121,21
122,21
123,3
124,3
125,2
126,21
127,21
128,2
129,2
130,2
131,2
132,2
133,3
134,2
135,2
136,2
137,2
138,20
139,1
140,1
141,1
142,3
143,3
144,2
145,2
146,2
147,12
148,11
149,11
150,42
151,10
152,11
153,8
154,2
155,3
156,3
157,3
158,19
159,8
160,8
161,19
162,8
163,19
164,19
165,19
166,11
167,10
168,10
169,10
170,10
171,10
172,10
173,10
174,10
175,10
176,10
177,10
178,10
179,19
180,48
181,19
182,19
183,19
184,2
185,2
186,2
187,2
188,2
189,2
190,2
191,2
192,2
193,2
194,2
195,2
196,2
197,2
198,2
199,2
200,2
201,2
202,2
203,2
204,2
205,2
206,2
207,2
208,2
209,2
210,2
211,2
212,2
213,2
214,2
215,2
216,2
217,2
218,2
219,2
220,19
221,19
222,2
223,2
224,19
225,10
226,10
227,19
228,19
229,20
230,20
231,17
232,27
233,17
234,17
235,17
236,17
237,10
238,10
239,10
240,10
241,10
242,10
243,10
244,10
245,10
246,10
247,10
248,10
249,10
250,10
251,10
252,10
253,10
254,10
255,10
256,10
257,10
258,10
259,10
260,10
261,2
262,2
263,2
264,2
265,2
266,2
267,2
268,2
269,2
270,2
271,2
272,2
273,2
274,2
275,2
276,2
277,2
278,2
279,2
280,2
281,2
282,2
283,2
284,2
285,2
286,2
287,2
288,2
289,19
290,2
291,2
292,2
293,2
294,2
295,2
296,2
297,10
298,10
299,10
300,10
301,10
302,12
303,10
304,10
305,12
306,10
307,10
308,10
309,10
310,10
311,10
312,12
313,10
314,10
315,10
316,10
317,10
318,10
319,12
320,10
321,10
322,10
323,10
324,10
325,10
326,10
327,10
328,10
329,10
330,10
331,10
332,10
333,10
334,10
335,10
336,10
337,10
338,10
339,10
340,10
341,12
342,12
343,10
344,10
345,19
346,1
347,1
348,1
349,10
350,3
351,3
352,3
353,3
354,3
355,3
356,3
357,3
358,3
359,3
360,3
361,3
362,3
363,3
364,3
365,3
366,3
367,3
368,3
369,3
370,3
371,3
372,3
373,3
374,10
375,3
376,3
377,3
378,3
379,3
380,3
381,3
382,3
383,3
384,3
385,3
386,3
387,3
388,3
389,19
390,19
391,19
392,19
393,19
394,45
395,3
396,3
397,3
398,3
399,3
400,3
401,3
402,3
403,3
404,3
405,12
406,12
407,12
408,12
409,3
410,3
411,3
412,3
413,3
414,3
415,3
416,3
417,3
418,3
419,3
420,3
421,10
422,10
423,10
424,10
425,10
426,10
427,10
428,10
429,10
430,10
431,10
432,10
433,10
434,10
435,10
436,10
437,10
438,10
439,10
440,10
441,10
442,10
443,10
444,10
445,12
446,12
447,3
448,3
449,45
450,45
451,3
452,3
453,3
454,3
455,3
456,3
457,3
458,3
459,3
460,3
461,3
462,45
463,10
464,45
465,10
466,3
467,3
468,45
469,45
470,45
471,45
472,10
473,10
474,10
475,10
476,10
477,3
478,3
479,3
480,3
481,10
482,3
483,3
484,12
485,12
486,3
487,3
488,3
489,3
490,3
491,3
492,3
493,3
494,3
495,45
496,45
497,44
498,45
499,3
500,3
501,3
502,3
503,3
504,14
505,10
506,10
507,10
508,10
509,10
510,10
511,10
512,10
513,10
514,10
515,10
516,10
517,19
518,11
519,3
520,3
521,3
522,1
523,20
524,3
525,3
526,4
527,4
528,4
529,4
530,4
531,4
532,4
533,4
534,4
535,4
536,4
537,4
538,4
539,4
540,4
541,4
542,4
543,1
544,4
545,4
546,4
547,4
548,4
549,4
550,4
551,4
552,1
553,1
554,1
555,4
556,3
557,4
558,4
559,4
560,5
561,5
562,3
563,3
564,3
565,3
566,3
567,4
568,10
569,10
570,10
571,10
572,10
573,10
574,10
575,10
576,10
577,10
578,10
579,10
580,10
581,10
582,11
583,11
584,10
585,10
586,10
587,10
588,10
589,10
590,10
591,10
592,10
593,10
594,10
595,10
596,10
597,10
598,10
599,10
600,2
601,1
602,1
603,1
604,1
605,1
606,1
607,1
608,1
609,21
610,21
611,21
612,4
613,4
614,4
615,4
616,5
617,15
618,18
619,15
620,15
621,13
622,15
623,13
624,15
625,15
626,13
627,15
628,4
629,15
630,18
631,18
632,18
633,4
634,4
635,20
636,17
637,4
638,4
639,1
640,3
641,3
642,3
643,11
644,12
645,12
646,19
647,19
648,19
649,19
650,12
651,10
652,19
653,17
654,10
655,10
656,10
657,10
658,10
659,10
660,10
661,10
662,10
663,10
664,10
665,10
666,10
667,10
668,10
669,10
670,12
671,10
672,10
673,10
674,10
675,10
676,11
677,11
678,11
679,19
680,10
681,19
682,19
683,7
684,7
685,5
686,3
687,3
688,5
689,5
690,5
691,5
692,5
693,5
694,5
695,5
696,5
697,5
698,5
699,5
700,5
701,5
702,5
703,5
704,5
705,5
706,5
707,5
708,5
709,5
710,5
711,7
712,7
713,5
714,5
715,5
716,5
717,5
718,5
719,3
720,3
721,14
722,14
723,14
724,14
725,8
726,8
727,14
728,8
729,14
730,3
731,3
732,8
733,8
734,8
735,10
736,10
737,3
738,3
739,45
740,45
741,45
742,45
743,1
744,1
745,10
746,1
747,10
748,1
749,1
750,10
751,1
752,1
753,1
754,1
755,1
756,1
757,10
758,2
759,3
760,3
761,3
762,3
763,3
764,3
765,3
766,3
767,5
768,5
769,5
770,5
771,5
772,5
773,5
774,5
775,5
776,5
777,5
778,5
779,5
780,5
781,5
782,5
783,5
784,5
785,5
786,5
787,5
788,5
789,5
790,5
791,5
792,5
793,5
794,5
795,5
796,5
797,3
798,3
799,3
800,3
801,3
802,5
803,3
804,3
805,3
806,3
807,3
808,3
809,3
810,1
811,3
812,3
813,3
814,3
815,3
816,3
817,3
818,3
819,1
820,3
821,3
822,3
823,3
824,3
825,3
826,3
827,3
828,3
829,3
830,8
831,2
832,2
833,3
834,3
835,2
836,2
837,3
838,5
839,1
840,3
841,3
842,10
843,10
844,10
845,10
846,10
847,10
848,10
849,10
850,10
851,20
852,3
853,3
854,3
855,2
856,25
857,20
858,20
859,10
860,6
861,3
862,3
863,3
864,3
865,6
866,6
867,6
868,24
869,20
870,3
871,6
872,6
873,20
874,10
875,3
876,3
877,3
878,3
879,3
880,3
881,10
882,10
883,8
884,8
885,26
886,45
887,45
888,3
889,3
890,42
891,42
892,42
893,11
894,10
895,10
896,46
897,46
898,10
899,10
900,10
901,10
902,10
903,10
904,10
905,10
906,10
907,10
908,10
909,10
910,10
911,10
912,10
913,10
914,10
915,10
916,10
917,10
918,10
919,10
920,10
921,10
922,10
923,10
924,10
925,10
926,10
927,10
928,10
929,10
930,10
931,10
932,10
933,10
934,10
935,10
936,10
937,10
938,10
939,10
940,10
941,3
942,3
943,3
944,3
945,3
946,3
947,3
948,3
949,3
950,1
951,2
952,2
953,3
954,2
955,20
956,20
957,20
958,6
959,3
960,3
961,3
962,3
963,3
964,1
965,1
966,1
967,1
968,1
969,3
970,1
971,3
972,3
973,3
974,3
975,3
976,19
977,46
978,46
979,42
980,10
981,10
982,10
983,10
984,10
985,10
986,10
987,10
988,10
989,10
990,10
991,10
992,12
993,12
994,10
995,10
996,10
997,10
998,10
999,10
1000,10
1001,10
1002,10
1003,10
1004,10
1005,10
1006,10
1007,10
1008,10
1009,10
1010,10
1011,10
1012,10
1013,10
1014,10
1015,10
1016,10
1017,10
1018,10
1019,10
1020,10
1021,10
1022,10
1023,19
1024,19
1025,19
1026,8
1027,8
1028,1
1029,5
1030,5
1031,7
1032,7
1033,7
1034,7
1035,7
1036,20
1037,5
1038,6
1039,7
1040,7
1041,7
1042,8
1043,8
1044,6
1045,7
1046,7
1047,7
1048,7
1049,7
1050,7
1051,1
1052,1
1053,7
1054,5
1055,5
1056,5
1057,28
1058,7
1059,8
1060,8
1061,1
1062,19
1063,46
1064,8
1065,8
1066,17
1067,19
1068,10
1069,10
1070,46
1071,17
1072,19
1073,46
1074,46
1075,46
1076,46
1077,18
1078,19
1079,19
1080,17
1081,12
1082,19
1083,19
1084,19
1085,12
1086,10
1087,10
1088,10
1089,10
1090,10
1091,9
1092,9
1093,10
1094,10
1095,10
1096,12
1097,10
1098,12
1099,10
1100,10
1101,19
1102,19
1103,19
1104,17
1105,19
1106,8
1107,8
1108,44
1109,8
1110,8
1111,8
1112,8
1113,9
1114,6
1115,6
1116,3
1117,5
1118,7
1119,7
1120,7
1121,7
1122,7
1123,7
1124,7
1125,7
1126,7
1127,7
1128,7
1129,1
1130,16
1131,16
1132,16
1133,14
1134,3
1135,8
1136,1
1137,1
1138,1
1139,1
1140,1
1141,43
1142,7
1143,7
1144,7
1145,17
1146,19
1147,19
1148,8
1149,8
1150,19
1151,46
1152,10
1153,10
1154,10
1155,10
1156,10
1157,10
1158,11
1159,10
1160,10
1161,11
1162,20
1163,8
1164,19
1165,10
1166,10
1167,10
1168,10
1169,10
1170,10
1171,10
1172,10
1173,12
1174,10
1175,10
1176,10
1177,10
1178,10
1179,10
1180,10
1181,10
1182,19
1183,19
1184,10
1185,10
1186,10
1187,19
1188,19
1189,27
1190,17
1191,17
1192,19
1193,19
1194,19
1195,10
1196,10
1197,10
1198,10
1199,8
1200,3
1201,3
1202,3
1203,3
1204,36
1205,15
1206,45
1207,40
1208,40
1209,40
1210,45
1211,4
1212,5
1213,5
1214,5
1215,5
1216,5
1217,5
1218,5
1219,5
1220,5
1221,5
1222,5
1223,5
1224,5
1225,5
1226,5
1227,11
1228,8
1229,8
1230,8
1231,5
1232,1
1233,5
1234,5
1235,8
1236,8
1237,5
1238,5
1239,5
1240,3
1241,5
1242,5
1243,5
1244,5
1245,5
1246,5
1247,8
1248,11
1249,11
1250,12
1251,10
1252,10
1253,10
1254,10
1255,10
1256,19
1257,10
1258,10
1259,10
1260,10
1261,10
1262,10
1263,10
1264,10
1265,10
1266,19
1267,10
1268,10
1269,10
1270,10
1271,10
1272,11
1273,11
1274,10
1275,42
1276,44
1277,44
1278,44
1279,8
1280,8
1281,8
1282,8
1283,8
1284,8
1285,8
1286,8
1287,8
1288,8
1289,8
1290,8
1291,5
1292,5
1293,5
1294,5
1295,8
1296,8
1297,5
1298,5
1299,5
1300,5
1301,4
1302,38
1303,5
1304,8
1305,8
1306,8
1307,8
1308,8
1309,8
1310,8
1311,8
1312,3
1313,36
1314,18
1315,3
1316,2
1317,8
1318,8
1319,8
1320,8
1321,17
1322,17
1323,17
1324,17
1325,17
1326,8
1327,8
1328,8
1329,8
1330,10
1331,38
1332,27
1333,10
1334,10
1335,10
1336,10
1337,10
1338,10
1339,10
1340,17
1341,17
1342,17
1343,17
1344,17
1345,17
1346,17
1347,10
1348,10
1349,10
1350,10
1351,10
1352,10
1353,10
1354,10
1355,10
1356,10
1357,10
1358,10
1359,10
1360,10
1361,10
1362,10
1363,10
1364,10
1365,10
1366,10
1367,10
1368,19
1369,19
1370,10
1371,2
1372,3
1373,3
1374,20
1375,24
1376,9
1377,11
1378,11
1379,9
1380,24
1381,9
1382,9
1383,9
1384,9
1385,9
1386,9
1387,9
1388,9
1389,9
1390,9
1391,9
1392,9
1393,9
1394,9
1395,9
1396,9
1397,9
1398,33
1399,9
1400,9
1401,22
1402,22
1403,43
1404,33
1405,26
1406,3
1407,26
1408,11
1409,10
1410,10
1411,10
1412,10
1413,11
1414,11
1415,11
1416,11
1417,8
1418,10
1419,10
1420,10
1421,10
1422,9
1423,10
1424,11
1425,11
1426,9
1427,9
1428,9
1429,9
1430,10
1431,10
1432,10
1433,10
1434,10
1435,10
1436,10
1437,10
1438,10
1439,37
1440,10
1441,10
1442,10
1443,10
1444,10
1445,10
1446,10
1447,10
1448,19
1449,19
1450,10
1451,25
1452,24
1453,9
1454,9
1455,9
1456,9
1457,11
1458,11
1459,11
1460,9
1461,9
1462,9
1463,9
1464,9
1465,9
1466,9
1467,9
1468,9
1469,9
1470,9
1471,9
1472,9
1473,9
1474,9
1475,9
1476,9
1477,9
1478,9
1479,9
1480,9
1481,9
1482,9
1483,9
1484,9
1485,9
1486,9
1487,9
1488,11
1489,11
1490,11
1491,11
1492,11
1493,11
1494,13
1495,13
1496,13
1497,37
1498,2
1499,46
1500,3
1501,18
1502,46
1503,21
1504,10
1505,10
1506,10
1507,18
1508,13
1509,18
1510,46
1511,46
1512,10
1513,10
1514,10
1515,10
1516,10
1517,10
1518,10
1519,10
1520,10
1521,10
1522,10
1523,10
1524,10
1525,10
1526,10
1527,10
1528,10
1529,10
1530,10
1531,10
1532,10
1533,20
1534,12
1535,10
1536,3
1537,3
1538,3
1539,10
1540,1
1541,1
1542,44
1543,12
1544,3
1545,1
1546,1
1547,1
1548,1
1549,1
1550,3
1551,3
1552,3
1553,3
1554,4
1555,1
1556,3
1557,1
1558,1
1559,3
1560,3
1561,3
1562,3
1563,10
1564,12
1565,3
1566,12
1567,12
1568,12
1569,12
1570,10
1571,10
1572,11
1573,10
1574,10
1575,10
1576,10
1577,10
1578,10
1579,10
1580,10
1581,10
1582,10
1583,10
1584,10
1585,11
1586,10
1587,10
1588,11
1589,10
1590,10
1591,10
1592,10
1593,10
1594,10
1595,10
1596,10
1597,10
1598,10
1599,10
1600,10
1601,10
1602,10
1603,10
1604,10
1605,10
1606,10
1607,10
1608,10
1609,10
1610,10
1611,10
1612,10
1613,10
1614,10
1615,10
1616,10
1617,10
1618,10
1619,10
1620,12
1621,17
1622,10
1623,10
1624,12
1625,3
1626,3
1627,3
1628,25
1629,25
1630,10
1631,10
1632,10
1633,6
1634,6
1635,6
1636,1
1637,1
1638,10
1639,3
1640,3
1641,3
1642,3
1643,12
1644,12
1645,11
1646,11
1647,10
1648,10
1649,10
1650,10
1651,10
1652,10
1653,10
1654,10
1655,10
1656,10
1657,27
1658,17
1659,10
1660,17
1661,17
1662,17
1663,17
1664,17
1665,17
1666,17
1667,17
1668,3
1669,38
1670,38
1671,38
1672,20
1673,1
1674,10
1675,10
1676,10
1677,20
1678,1
1679,1
1680,10
1681,10
1682,10
1683,10
1684,11
1685,11
1686,11
1687,11
1688,11
1689,11
1690,11
1691,11
1692,11
1693,11
1694,12
1695,11
1696,19
1697,13
1698,13
1699,10
1700,13
1701,12
1702,11
1703,9
1704,11
1705,24
1706,24
1707,24
1708,11
1709,24
1710,24
1711,24
1712,9
1713,9
1714,9
1715,24
1716,24
1717,9
1718,9
1719,11
1720,11
1721,9
1722,9
1723,9
1724,9
1725,9
1726,9
1727,9
1728,9
1729,9
1730,9
1731,9
1732,9
1733,9
1734,9
1735,9
1736,11
1737,11
1738,13
1739,37
1740,11
1741,10
1742,10
1743,10
1744,10
1745,10
1746,10
1747,10
1748,10
1749,10
1750,10
1751,11
1752,10
1753,10
1754,12
1755,10
1756,10
1757,10
1758,10
1759,10
1760,10
1761,11
1762,11
1763,10
1764,10
1765,10
1766,10
1767,10
1768,10
1769,11
1770,10
1771,10
1772,10
1773,10
1774,10
1775,10
1776,10
1777,10
1778,10
1779,10
1780,10
1781,19
1782,11
1783,10
1784,9
1785,11
1786,11
1787,11
1788,11
1789,9
1790,9
1791,9
1792,9
1793,9
1794,9
1795,9
1796,9
1797,9
1798,9
1799,9
1800,13
1801,9
1802,9
1803,9
1804,9
1805,9
1806,9
1807,9
1808,9
1809,9
1810,11
1811,11
1812,9
1813,9
1814,9
1815,11
1816,11
1817,13
1818,10
1819,44
1820,10
1821,9
1822,10
1823,10
1824,10
1825,10
1826,10
1827,10
1828,10
1829,10
1830,10
1831,10
1832,10
1833,10
1834,10
1835,11
1836,11
1837,11
1838,11
1839,11
1840,10
1841,10
1842,10
1843,11
1844,11
1845,11
1846,10
1847,10
1848,10
1849,10
1850,10
1851,10
1852,10
1853,10
1854,10
1855,10
1856,10
1857,11
1858,10
1859,10
1860,10
1861,10
1862,11
1863,10
1864,10
1865,11
1866,11
1867,2
1868,2
1869,21
1870,21
1871,2
1872,2
1873,21
1874,21
1875,21
1876,21
1877,21
1878,21
1879,21
1880,21
1881,2
1882,2
1883,2
1884,12
1885,21
1886,2
1887,21
1888,21
1889,21
1890,21
1891,21
1892,21
1893,21
1894,12
1895,21
1896,21
1897,21
1898,21
1899,21
1900,21
1901,21
1902,21
1903,21
1904,21
1905,21
1906,21
1907,2
1908,2
1909,2
1910,2
1911,2
1912,2
1913,21
1914,21
1915,21
1916,2
1917,2
1918,2
1919,2
1920,2
1921,2
1922,2
1923,2
1924,2
1925,2
1926,2
1927,2
1928,2
1929,2
1930,2
1931,2
1932,3
1933,12
1934,10
1935,10
1936,19
1937,10
1938,10
1939,10
1940,10
1941,10
1942,10
1943,10
1944,10
1945,10
1946,10
1947,10
1948,11
1949,10
1950,10
1951,10
1952,10
1953,10
1954,10
1955,10
1956,10
1957,10
1958,10
1959,10
1960,10
1961,10
1962,12
1963,12
1964,10
1965,10
1966,10
1967,10
1968,10
1969,12
1970,10
1971,10
1972,10
1973,19
1974,19
1975,10
1976,10
1977,10
1978,10
1979,10
1980,10
1981,10
1982,10
1983,10
1984,10
1985,10
1986,10
1987,10
1988,10
1989,10
1990,10
1991,10
1992,10
1993,10
1994,10
1995,10
1996,10
1997,10
1998,10
1999,10
2000,10
2001,10
2002,11
2003,11
2004,10
2005,10
2006,10
2007,10
2008,10
2009,10
2010,10
2011,10
2012,10
2013,10
2014,10
2015,10
2016,10
2017,10
2018,10
2019,10
2020,10
2021,10
2022,10
2023,10
2024,10
2025,10
2026,10
2027,17
2028,17
2029,17
2030,17
2031,19
2032,17
2033,17
2034,20
2035,18
2036,18
2037,18
2038,13
2039,18
2040,4
2041,4
2042,18
2043,18
2044,18
2045,18
2046,18
2047,18
2048,18
2049,18
2050,18
2051,51
2052,51
2053,29
2054,33
2055,33
2056,39
2057,39
2058,39
2059,27
2060,29
2061,29
2062,29
2063,29
2064,9
2065,9
2066,9
2067,9
2068,13
2069,9
2070,9
2071,13
2072,13
2073,4
2074,13
2075,4
2076,4
2077,46
2078,11
2079,10
2080,10
2081,10
2082,11
2083,10
2084,10
2085,10
2086,10
2087,10
2088,10
2089,7
2090,3
2091,3
2092,3
2093,8
2094,3
2095,3
2096,8
2097,9
2098,9
2099,9
2100,9
2101,10
2102,10
2103,10
2104,10
2105,10
2106,10
2107,10
2108,10
2109,10
2110,10
2111,10
2112,10
2113,10
2114,10
2115,10
2116,10
2117,10
2118,10
2119,10
2120,10
2121,10
2122,10
2123,10
2124,20
2125,10
2126,19
2127,19
2128,13
2129,3
2130,18
2131,13
2132,13
2133,13
2134,13
2135,13
2136,13
2137,13
2138,10
2139,10
2140,10
2141,10
2142,10
2143,10
2144,13
2145,21
2146,50
2147,13
2148,13
2149,7
2150,37
2151,37
2152,40
2153,13
2154,10
2155,10
2156,10
2157,46
2158,10
2159,10
2160,10
2161,10
2162,10
2163,10
2164,10
2165,10
2166,1
2167,10
2168,17
2169,17
2170,10
2171,20
2172,3
2173,3
2174,4
2175,11
2176,10
2177,10
2178,10
2179,17
2180,10
2181,10
2182,10
2183,10
2184,10
2185,10
2186,10
2187,10
2188,10
2189,10
2190,8
2191,3
2192,8
2193,41
2194,15
2195,15
2196,15
2197,5
2198,5
2199,5
2200,5
2201,5
2202,5
2203,5
2204,7
2205,7
2206,7
2207,8
2208,15
2209,15
2210,15
2211,15
2212,15
2213,15
2214,15
2215,14
2216,15
2217,15
2218,15
2219,15
2220,15
2221,15
2222,15
2223,15
2224,14
2225,14
2226,14
2227,15
2228,15
2229,15
2230,15
2231,15
2232,15
2233,15
2234,17
2235,17
2236,17
2237,3
2238,7
2239,7
2240,7
2241,11
2242,3
2243,3
2244,3
2245,10
2246,10
2247,10
2248,10
2249,10
2250,10
2251,10
2252,10
2253,10
2254,10
2255,10
2256,10
2257,10
2258,10
2259,10
2260,10
2261,10
2262,10
2263,10
2264,1
2265,10
2266,3
2267,19
2268,19
2269,12
2270,12
2271,10
2272,10
2273,10
2274,10
2275,10
2276,10
2277,10
2278,10
2279,11
2280,17
2281,17
2282,17
2283,17
2284,10
2285,17
2286,17
2287,8
2288,4
2289,5
2290,15
2291,15
2292,18
2293,15
2294,15
2295,15
2296,15
2297,15
2298,14
2299,14
2300,14
2301,14
2302,15
2303,15
2304,14
2305,14
2306,14
2307,14
2308,15
2309,15
2310,15
2311,15
2312,15
2313,15
2314,15
2315,15
2316,15
2317,14
2318,14
2319,15
2320,14
2321,15
2322,15
2323,15
2324,15
2325,15
2326,15
2327,3
2328,7
2329,7
2330,3
2331,2
2332,10
2333,10
2334,19
2335,10
2336,10
2337,36
2338,46
2339,2
2340,19
2341,19
2342,10
2343,10
2344,10
2345,10
2346,10
2347,10
2348,10
2349,10
2350,10
2351,19
2352,10
2353,10
2354,10
2355,10
2356,10
2357,10
2358,10
2359,10
2360,10
2361,10
2362,10
2363,11
2364,17
2365,18
2366,4
2367,5
2368,15
2369,15
2370,15
2371,15
2372,15
2373,15
2374,15
2375,15
2376,15
2377,15
2378,15
2379,15
2380,15
2381,15
2382,15
2383,15
2384,15
2385,15
2386,15
2387,15
2388,15
2389,15
2390,15
2391,15
2392,15
2393,15
2394,15
2395,15
2396,15
2397,15
2398,15
2399,15
2400,15
2401,15
2402,15
2403,15
2404,15
2405,14
2406,5
2407,3
2408,9
2409,9
2410,10
2411,10
2412,10
2413,10
2414,27
2415,19
2416,8
2417,8
2418,8
2419,8
2420,8
2421,27
2422,27
2423,19
2424,19
2425,12
2426,10
2427,10
2428,10
2429,10
2430,10
2431,10
2432,10
2433,10
2434,10
2435,10
2436,10
2437,10
2438,10
2439,10
2440,10
2441,10
2442,10
2443,10
2444,10
2445,10
2446,10
2447,10
2448,17
2449,10
2450,7
2451,3
2452,3
2453,8
2454,15
2455,15
2456,15
2457,15
2458,15
2459,15
2460,15
2461,15
2462,15
2463,15
2464,15
2465,15
2466,15
2467,15
2468,15
2469,15
2470,15
2471,15
2472,15
2473,15
2474,15
2475,15
2476,15
2477,15
2478,15
2479,15
2480,15
2481,15
2482,15
2483,15
2484,15
2485,1
2486,1
2487,1
2488,1
2489,1
2490,12
2491,1
2492,2
2493,2
2494,3
2495,3
2496,3
2497,19
2498,10
2499,10
2500,10
2501,10
2502,10
2503,10
2504,10
2505,10
2506,10
2507,10
2508,10
2509,10
2510,10
2511,10
2512,17
2513,10
2514,10
2515,17
2516,17
2517,10
2518,10
2519,10
2520,10
2521,17
2522,17
2523,10
2524,10
2525,10
2526,10
2527,10
2528,10
2529,10
2530,17
2531,17
2532,10
2533,10
2534,1
2535,17
2536,17
2537,19
2538,10
2539,10
2540,20
2541,1
2542,1
2543,1
2544,20
2545,1
2546,1
2547,1
2548,3
2549,7
2550,5
2551,3
2552,3
2553,1
2554,1
2555,20
2556,6
2557,20
2558,3
2559,3
2560,6
2561,24
2562,15
2563,15
2564,14
2565,14
2566,4
2567,14
2568,1
2569,1
2570,4
2571,4
2572,4
2573,4
2574,14
2575,14
2576,5
2577,5
2578,7
2579,7
2580,7
2581,7
2582,7
2583,7
2584,26
2585,19
2586,19
2587,19
2588,10
2589,37
2590,18
2591,10
2592,10
2593,10
2594,36
2595,36
2596,10
2597,10
2598,10
2599,10
2600,10
2601,10
2602,10
2603,10
2604,10
2605,10
2606,10
2607,10
2608,10
2609,17
2610,10
2611,17
2612,17
2613,17
2614,17
2615,17
2616,17
2617,17
2618,17
2619,17
2620,17
2621,17
2622,17
2623,1
2624,1
2625,8
2626,8
2627,17
2628,17
2629,17
2630,1
2631,3
2632,3
2633,19
2634,2
2635,10
2636,10
2637,3
2638,3
2639,12
2640,24
2641,24
2642,24
2643,20
2644,20
2645,24
2646,24
2647,24
2648,24
2649,24
2650,7
2651,29
2652,7
2653,7
2654,7
2655,7
2656,1
2657,1
2658,1
2659,1
2660,3
2661,1
2662,1
2663,1
2664,1
2665,1
2666,1
2667,5
2668,17
2669,17
2670,36
2671,36
2672,36
2673,37
2674,36
2675,36
2676,36
2677,17
2678,37
2679,10
2680,37
2681,10
2682,10
2683,10
2684,10
2685,10
2686,10
2687,10
2688,10
2689,10
2690,10
2691,10
2692,10
2693,10
2694,10
2695,10
2696,10
2697,10
2698,10
2699,10
2700,10
2701,10
2702,19
2703,10
2704,10
2705,10
2706,10
2707,10
2708,8
2709,10
2710,10
2711,10
2712,20
2713,20
2714,10
2715,10
2716,10
2717,19
2718,20
2719,20
2720,37
2721,20
2722,17
2723,17
2724,17
2725,22
2726,23
2727,17
2728,22
2729,22
2730,17
2731,17
2732,17
2733,22
2734,14
2735,17
2736,16
2737,20
2738,16
2739,16
2740,16
2741,16
2742,16
2743,17
2744,17
2745,3
2746,19
2747,19
2748,17
2749,37
2750,37
2751,12
2752,10
2753,10
2754,10
2755,11
2756,11
2757,11
2758,9
2759,9
2760,10
2761,11
2762,20
2763,11
2764,11
2765,18
2766,25
2767,8
2768,8
2769,8
2770,3
2771,19
2772,12
2773,12
2774,10
2775,10
2776,10
2777,10
2778,18
2779,10
2780,10
2781,10
2782,10
2783,10
2784,10
2785,10
2786,10
2787,10
2788,10
2789,10
2790,10
2791,10
2792,10
2793,10
2794,20
2795,3
2796,3
2797,5
2798,5
2799,20
2800,20
2801,20
2802,16
2803,16
2804,22
2805,6
2806,6
2807,15
2808,20
2809,20
2810,6
2811,15
2812,15
2813,15
2814,15
2815,6
2816,10
2817,10
2818,10
2819,6
2820,6
2821,20
2822,20
2823,20
2824,45
2825,10
2826,19
2827,19
2828,20
2829,1
2830,15
2831,17
2832,1
2833,1
2834,20
2835,1
2836,1
2837,18
2838,20
2839,10
2840,10
2841,10
2842,10
2843,10
2844,10
2845,10
2846,10
2847,10
2848,10
2849,10
2850,10
2851,10
2852,10
2853,10
2854,20
2855,10
2856,10
2857,10
2858,10
2859,10
2860,10
2861,10
2862,10
2863,10
2864,10
2865,10
2866,10
2867,10
2868,19
2869,19
2870,46
2871,46
2872,46
2873,10
2874,10
2875,10
2876,19
2877,19
2878,3
2879,5
2880,5
2881,5
2882,5
2883,5
2884,18
2885,18
2886,18
2887,18
2888,18
2889,18
2890,18
2891,18
2892,18
2893,18
2894,18
2895,18
2896,18
2897,37
2898,31
2899,31
2900,18
2901,18
2902,18
2903,18
2904,18
2905,13
2906,18
2907,18
2908,18
2909,18
2910,18
2911,18
2912,18
2913,18
2914,18
2915,18
2916,13
2917,13
2918,18
2919,24
2920,46
2921,13
2922,8
2923,8
2924,46
2925,18
2926,8
2927,8
2928,8
2929,2
2930,17
2931,17
2932,19
2933,19
2934,10
2935,1
2936,3
2937,2
2938,18
2939,10
2940,10
2941,17
2942,19
2943,46
2944,46
2945,46
2946,46
2947,10
2948,10
2949,10
2950,10
2951,10
2952,17
2953,17
2954,20
2955,13
2956,8
2957,5
2958,5
2959,5
2960,5
2961,18
2962,18
2963,18
2964,18
2965,15
2966,15
2967,15
2968,18
2969,18
2970,18
2971,18
2972,18
2973,18
2974,18
2975,18
2976,18
2977,18
2978,18
2979,18
2980,18
2981,18
2982,18
2983,18
2984,18
2985,18
2986,18
2987,18
2988,18
2989,18
2990,18
2991,18
2992,18
2993,18
2994,18
2995,18
2996,18
2997,18
2998,18
2999,18
3000,18
3001,18
3002,18
3003,18
3004,18
3005,18
3006,18
3007,18
3008,1
3009,37
3010,24
3011,37
3012,21
3013,37
3014,43
3015,43
3016,42
3017,48
3018,43
3019,43
3020,43
3021,37
3022,6
3023,48
3024,37
3025,37
3026,3
3027,3
3028,27
3029,37
3030,45
3031,50
3032,11
3033,11
3034,11
3035,11
3036,11
3037,10
3038,10
3039,10
3040,10
3041,10
3042,11
3043,11
3044,11
3045,11
3046,11
3047,11
3048,10
3049,10
3050,19
3051,19
3052,2
3053,19
3054,19
3055,19
3056,19
3057,3
3058,4
3059,13
3060,8
3061,43
3062,19
3063,19
3064,19
3065,19
3066,2
3067,2
3068,2
3069,2
3070,19
3071,19
3072,19
3073,19
3074,19
3075,40
3076,43
3077,43
3078,19
3079,19
3080,19
3081,19
3082,43
3083,19
3084,19
3085,19
3086,19
3087,2
3088,2
3089,46
3090,8
3091,2
3092,1
3093,1
3094,1
3095,1
3096,1
3097,19
3098,10
3099,20
3100,19
3101,8
3102,8
3103,8
3104,8
3105,8
3106,8
3107,2
3108,9
3109,11
3110,9
3111,11
3112,11
3113,11
3114,9
3115,9
3116,10
3117,10
3118,10
3119,10
3120,10
3121,10
3122,10
3123,10
3124,10
3125,10
3126,10
3127,10
3128,10
3129,10
3130,10
3131,10
3132,10
3133,46
3134,19
3135,19
3136,19
3137,19
3138,19
3139,19
3140,19
3141,19
3142,19
3143,19
3144,19
3145,19
3146,19
3147,19
3148,19
3149,19
3150,19
3151,19
3152,19
3153,19
3154,19
3155,19
3156,19
3157,19
3158,19
3159,19
3160,19
3161,19
3162,19
3163,19
3164,19
3165,19
3166,19
3167,19
3168,19
3169,19
3170,19
3171,19
3172,42
3173,45
3174,8
3175,38
3176,3
3177,2
3178,2
3179,19
3180,19
3181,19
3182,19
3183,3
3184,4
3185,3
3186,8
3187,8
3188,5
3189,3
3190,3
3191,8
3192,9
3193,10
3194,10
3195,10
3196,10
3197,10
3198,10
3199,10
3200,10
3201,10
3202,10
3203,10
3204,10
3205,10
3206,10
3207,10
3208,10
3209,10
3210,11
3211,9
3212,2
3213,2
3214,3
3215,3
3216,3
3217,1
3218,1
3219,1
3220,1
3221,20
3222,20
3223,20
3224,20
3225,20
3226,20
3227,20
3228,20
3229,20
3230,20
3231,20
3232,20
3233,20
3234,20
3235,20
3236,20
3237,20
3238,5
3239,3
3240,3
3241,1
3242,3
3243,3
3244,3
3245,3
3246,1
3247,1
3248,25
3249,23
3250,23
3251,21
3252,1
3253,1
3254,12
3255,2
3256,2
3257,3
3258,2
3259,21
3260,11
3261,11
3262,11
3263,10
3264,10
3265,10
3266,10
3267,10
3268,17
3269,17
3270,17
3271,17
3272,17
3273,17
3274,17
3275,17
3276,10
3277,10
3278,10
3279,10
3280,10
3281,10
3282,10
3283,10
3284,10
3285,10
3286,10
3287,10
3288,10
3289,10
3290,10
3291,10
3292,10
3293,10
3294,10
3295,10
3296,19
3297,2
3298,1
3299,2
3300,1
3301,1
3302,1
3303,1
3304,1
3305,1
3306,1
3307,1
3308,21
3309,21
3310,20
3311,20
3312,20
3313,20
3314,20
3315,20
3316,20
3317,20
3318,20
3319,20
3320,5
3321,20
3322,20
3323,20
3324,20
3325,20
3326,5
3327,5
3328,20
3329,20
3330,20
3331,1
3332,20
3333,1
3334,1
3335,1
3336,1
3337,1
3338,1
3339,1
3340,1
3341,5
3342,2
3343,3
3344,1
3345,3
3346,2
3347,11
3348,11
3349,10
3350,27
3351,10
3352,10
3353,10
3354,10
3355,10
3356,10
3357,10
3358,10
3359,10
3360,10
3361,10
3362,12
3363,10
3364,10
3365,20
3366,10
3367,10
3368,10
3369,10
3370,10
3371,10
3372,10
3373,10
3374,10
3375,10
3376,10
3377,10
3378,10
3379,46
3380,46
3381,46
3382,46
3383,46
3384,1
3385,3
3386,21
3387,21
3388,21
3389,21
3390,21
3391,21
3392,21
3393,21
3394,21
3395,21
3396,23
3397,21
3398,21
3399,21
3400,21
3401,21
3402,21
3403,21
3404,21
3405,21
3406,21
3407,21
3408,21
3409,21
3410,21
3411,21
3412,21
3413,21
3414,21
3415,21
3416,21
3417,21
3418,21
3419,21
3420,50
3421,38
3422,38
3423,38
3424,25
3425,25
3426,47
3427,43
3428,21
3429,43
3430,21
3431,21
3432,20
3433,20
3434,20
3435,21
3436,21
3437,20
3438,20
3439,17
3440,19
3441,10
3442,10
3443,10
3444,10
3445,10
3446,10
3447,10
3448,10
3449,10
3450,10
3451,10
3452,10
3453,10
3454,10
3455,17
3456,10
3457,10
3458,10
3459,10
3460,10
3461,10
3462,10
3463,10
3464,10
3465,10
3466,10
3467,10
3468,10
3469,10
3470,10
3471,10
3472,10
3473,12
3474,10
3475,37
3476,50
3477,50
3478,50
3479,21
3480,37
3481,28
3482,28
3483,21
3484,21
3485,21
3486,21
3487,21
3488,21
3489,21
3490,21
3491,21
3492,21
3493,21
3494,21
3495,21
3496,21
3497,21
3498,21
3499,21
3500,21
3501,21
3502,21
3503,21
3504,21
3505,50
3506,36
3507,47
3508,30
3509,25
3510,37
3511,37
3512,36
3513,36
3514,22
3515,21
3516,21
3517,10
3518,10
3519,12
3520,42
3521,42
3522,17
3523,10
3524,10
3525,10
3526,10
3527,10
3528,17
3529,17
3530,10
3531,2
3532,2
3533,2
3534,10
3535,10
3536,27
3537,19
3538,19
3539,12
3540,19
3541,12
3542,10
3543,19
3544,10
3545,10
3546,10
3547,10
3548,37
3549,37
3550,10
3551,10
3552,10
3553,10
3554,37
3555,37
3556,37
3557,37
3558,37
3559,37
3560,22
3561,21
3562,22
3563,23
3564,25
3565,16
3566,22
3567,22
3568,25
3569,12
3570,41
3571,25
3572,21
3573,22
3574,22
3575,22
3576,22
3577,35
3578,35
3579,30
3580,30
3581,30
3582,30
3583,30
3584,37
3585,43
3586,43
3587,25
3588,37
3589,37
3590,36
3591,43
3592,44
3593,44
3594,9
3595,9
3596,19
3597,2
3598,2
3599,2
3600,2
3601,2
3602,2
3603,2
3604,2
3605,12
3606,10
3607,10
3608,10
3609,10
3610,10
3611,10
3612,10
3613,12
3614,19
3615,27
3616,27
3617,27
3618,27
3619,19
3620,19
3621,19
3622,10
3623,10
3624,18
3625,10
3626,10
3627,10
3628,37
3629,37
3630,36
3631,46
3632,36
3633,37
3634,37
3635,46
3636,37
3637,46
3638,46
3639,36
3640,37
3641,37
3642,21
3643,46
3644,46
3645,46
3646,46
3647,22
3648,22
3649,25
3650,43
3651,50
3652,25
3653,50
3654,25
3655,25
3656,25
3657,25
3658,25
3659,50
3660,50
3661,50
3662,9
3663,9
3664,9
3665,9
3666,10
3667,47
3668,47
3669,43
3670,37
3671,37
3672,42
3673,46
3674,10
3675,12
3676,20
3677,19
3678,38
3679,27
3680,10
3681,8
3682,2
3683,18
3684,18
3685,8
3686,46
3687,17
3688,46
3689,19
3690,12
3691,19
3692,19
3693,19
3694,27
3695,27
3696,27
3697,19
3698,19
3699,19
3700,19
3701,19
3702,19
3703,27
3704,19
3705,19
3706,19
3707,19
3708,19
3709,27
3710,27
3711,27
3712,46
3713,19
3714,19
3715,18
3716,18
3717,18
3718,18
3719,17
3720,2
3721,17
3722,1
3723,2
3724,2
3725,8
3726,12
3727,2
3728,1
3729,2
3730,1
3731,20
3732,19
3733,12
3734,10
3735,10
3736,10
3737,13
3738,13
3739,13
3740,13
3741,11
3742,13
3743,21
3744,21
3745,21
3746,21
3747,21
3748,21
3749,21
3750,21
3751,21
3752,21
3753,21
3754,21
3755,41
3756,45
3757,21
3758,47
3759,21
3760,21
3761,21
3762,17
3763,19
3764,19
3765,4
3766,8
3767,8
3768,4
3769,18
3770,18
3771,37
3772,19
3773,10
3774,10
3775,10
3776,10
3777,10
3778,19
3779,12
3780,19
3781,10
3782,10
3783,10
3784,4
3785,19
3786,19
3787,19
3788,19
3789,19
3790,27
3791,27
3792,27
3793,27
3794,27
3795,27
3796,27
3797,46
3798,19
3799,19
3800,19
3801,46
3802,2
3803,2
3804,2
3805,19
3806,19
3807,11
3808,10
3809,10
3810,10
3811,19
3812,19
3813,19
3814,10
3815,19
3816,10
3817,25
3818,21
3819,21
3820,21
3821,21
3822,23
3823,13
3824,13
3825,21
3826,21
3827,21
3828,23
3829,21
3830,21
3831,21
3832,21
3833,21
3834,21
3835,21
3836,21
3837,23
3838,48
3839,48
3840,13
3841,12
3842,10
3843,10
3844,10
3845,8
3846,10
3847,6
3848,4
3849,10
3850,11
3851,10
3852,46
3853,46
3854,8
3855,12
3856,37
3857,37
3858,19
3859,37
3860,10
3861,19
3862,12
3863,10
3864,10
3865,10
3866,46
3867,26
3868,19
3869,19
3870,19
3871,10
3872,19
3873,19
3874,19
3875,19
3876,19
3877,19
3878,19
3879,19
3880,3
3881,3
3882,1
3883,2
3884,21
3885,21
3886,21
3887,21
3888,21
3889,24
3890,24
3891,21
3892,12
3893,2
3894,2
3895,2
3896,21
3897,20
3898,23
3899,17
3900,20
3901,20
3902,25
3903,29
3904,29
3905,29
3906,29
3907,29
3908,36
3909,36
3910,25
3911,25
3912,23
3913,37
3914,23
3915,37
3916,21
3917,1
3918,1
3919,1
3920,3
3921,3
3922,1
3923,1
3924,1
3925,1
3926,2
3927,3
3928,3
3929,24
3930,3
3931,13
3932,3
3933,20
3934,1
3935,1
3936,3
3937,12
3938,10
3939,10
3940,12
3941,10
3942,10
3943,19
3944,19
3945,17
3946,19
3947,19
3948,19
3949,27
3950,27
3951,12
3952,19
3953,19
3954,19
3955,27
3956,2
3957,4
3958,19
3959,3
3960,2
3961,2
3962,2
3963,25
3964,25
3965,2
3966,2
3967,21
3968,21
3969,21
3970,21
3971,24
3972,21
3973,21
3974,21
3975,24
3976,24
3977,25
3978,25
3979,25
3980,10
3981,24
3982,37
3983,24
3984,25
3985,25
3986,28
3987,51
3988,25
3989,25
3990,25
3991,25
3992,25
3993,25
3994,2
3995,25
3996,25
3997,25
3998,12
3999,10
4000,2
4001,3
4002,12
4003,21
4004,24
4005,21
4006,21
4007,21
4008,25
4009,21
4010,24
4011,24
4012,24
4013,24
4014,24
4015,25
4016,25
4017,24
4018,20
4019,20
4020,1
4021,19
4022,10
4023,19
4024,19
4025,19
4026,19
4027,19
4028,46
4029,27
4030,19
4031,19
4032,3
4033,3
4034,1
4035,23
4036,20
4037,2
4038,2
4039,19
4040,37
4041,37
4042,37
4043,10
4044,10
4045,10
4046,37
4047,19
4048,23
4049,3
4050,3
4051,3
4052,1
4053,3
4054,25
4055,18
4056,24
4057,24
4058,24
4059,29
4060,24
4061,24
4062,24
4063,45
4064,10
4065,19
4066,19
4067,12
4068,12
4069,16
4070,16
4071,16
4072,12
4073,25
4074,25
4075,25
4076,25
4077,25
4078,25
4079,25
4080,25
4081,25
4082,25
4083,25
4084,25
4085,25
4086,25
4087,25
4088,25
4089,25
4090,25
4091,37
4092,38
4093,36
4094,42
4095,42
4096,38
4097,38
4098,21
4099,21
4100,21
4101,22
4102,16
4103,1
4104,2
4105,8
4106,10
4107,12
4108,17
4109,19
4110,20
4111,12
4112,19
4113,19
4114,10
4115,19
4116,37
4117,9
4118,10
4119,19
4120,19
4121,19
4122,19
4123,10
4124,10
4125,19
4126,19
4127,19
4128,20
4129,20
4130,20
4131,20
4132,20
4133,19
4134,19
4135,19
4136,19
4137,20
4138,8
4139,1
4140,1
4141,1
4142,1
4143,1
4144,19
4145,3
4146,3
4147,12
4148,12
4149,12
4150,17
4151,16
4152,12
4153,12
4154,12
4155,12
4156,25
4157,25
4158,25
4159,25
4160,25
4161,25
4162,25
4163,25
4164,25
4165,25
4166,25
4167,25
4168,25
4169,20
4170,29
4171,50
4172,38
4173,10
4174,17
4175,20
4176,8
4177,8
4178,8
4179,25
4180,37
4181,37
4182,22
4183,16
4184,1
4185,1
4186,2
4187,9
4188,9
4189,10
4190,10
4191,10
4192,10
4193,10
4194,19
4195,19
4196,19
4197,19
4198,19
4199,19
4200,20
4201,8
4202,3
4203,8
4204,4
4205,1
4206,1
4207,1
4208,2
4209,19
4210,19
4211,10
4212,10
4213,10
4214,10
4215,10
4216,19
4217,1
4218,2
4219,22
4220,3
4221,3
4222,1
4223,17
4224,23
4225,1
4226,1
4227,3
4228,25
4229,25
4230,25
4231,4
4232,4
4233,4
4234,4
4235,4
4236,4
4237,26
4238,24
4239,16
4240,26
4241,26
4242,26
4243,26
4244,37
4245,26
4246,26
4247,26
4248,37
4249,37
4250,43
4251,43
4252,43
4253,43
4254,4
4255,3
4256,8
4257,2
4258,2
4259,10
4260,10
4261,10
4262,2
4263,2
4264,10
4265,2
4266,2
4267,2
4268,1
4269,3
4270,2
4271,2
4272,2
4273,2
4274,2
4275,2
4276,2
4277,2
4278,8
4279,10
4280,10
4281,2
4282,2
4283,2
4284,2
4285,2
4286,2
4287,2
4288,2
4289,2
4290,2
4291,2
4292,1
4293,1
4294,10
4295,1
4296,1
4297,1
4298,1
4299,1
4300,19
4301,25
4302,19
4303,2
4304,1
4305,3
4306,1
4307,1
4308,1
4309,21
4310,17
4311,4
4312,4
4313,4
4314,26
4315,26
4316,26
4317,26
4318,26
4319,26
4320,26
4321,26
4322,26
4323,26
4324,26
4325,26
4326,26
4327,26
4328,36
4329,36
4330,43
4331,48
4332,43
4333,43
4334,8
4335,5
4336,8
4337,2
4338,2
4339,2
4340,2
4341,1
4342,10
4343,10
4344,10
4345,2
4346,2
4347,1
4348,1
4349,1
4350,1
4351,10
4352,2
4353,2
4354,19
4355,19
4356,19
4357,19
4358,10
4359,18
4360,19
4361,19
4362,19
4363,19
4364,19
4365,19
4366,19
4367,19
4368,2
4369,2
4370,19
4371,2
4372,2
4373,19
4374,2
4375,18
4376,19
4377,10
4378,19
4379,10
4380,10
4381,10
4382,10
4383,37
4384,10
4385,10
4386,10
4387,10
4388,10
4389,10
4390,10
4391,10
4392,19
4393,17
4394,17
4395,19
4396,20
4397,10
4398,37
4399,37
4400,44
4401,48
4402,48
4403,37
4404,37
4405,37
4406,26
4407,26
4408,26
4409,26
4410,27
4411,27
4412,27
4413,27
4414,27
4415,27
4416,27
4417,27
4418,26
4419,26
4420,26
4421,48
4422,48
4423,48
4424,48
4425,18
4426,46
4427,37
4428,37
4429,2
4430,19
4431,19
4432,19
4433,10
4434,10
4435,10
4436,12
4437,12
4438,10
4439,10
4440,10
4441,10
4442,10
4443,10
4444,10
4445,10
4446,10
4447,10
4448,10
4449,10
4450,10
4451,10
4452,10
4453,12
4454,10
4455,10
4456,10
4457,10
4458,10
4459,10
4460,10
4461,10
4462,10
4463,1
4464,1
4465,12
4466,10
4467,8
4468,1
4469,1
4470,1
4471,1
4472,1
4473,8
4474,8
4475,1
4476,17
4477,38
4478,3
4479,3
4480,37
4481,42
4482,38
4483,27
4484,27
4485,27
4486,27
4487,27
4488,26
4489,26
4490,27
4491,27
4492,27
4493,26
4494,26
4495,26
4496,27
4497,27
4498,27
4499,26
4500,26
4501,26
4502,27
4503,49
4504,49
4505,49
4506,27
4507,39
4508,18
4509,26
4510,6
4511,5
4512,48
4513,48
4514,48
4515,46
4516,19
4517,19
4518,19
4519,46
4520,19
4521,10
4522,17
4523,10
4524,10
4525,10
4526,19
4527,19
4528,1
4529,1
4530,1
4531,1
4532,1
4533,19
4534,20
4535,19
4536,19
4537,2
4538,2
4539,1
4540,19
4541,1
4542,17
4543,10
4544,19
4545,17
4546,8
4547,8
4548,1
4549,1
4550,10
4551,10
4552,10
4553,10
4554,8
4555,10
4556,10
4557,10
4558,10
4559,17
4560,17
4561,25
4562,25
4563,25
4564,25
4565,10
4566,22
4567,24
4568,25
4569,25
4570,29
4571,28
4572,10
4573,10
4574,10
4575,10
4576,10
4577,28
4578,29
4579,29
4580,29
4581,47
4582,47
4583,25
4584,25
4585,25
4586,25
4587,25
4588,25
4589,25
4590,25
4591,28
4592,28
4593,25
4594,28
4595,25
4596,25
4597,25
4598,36
4599,29
4600,29
4601,27
4602,27
4603,37
4604,28
4605,37
4606,37
4607,37
4608,20
4609,20
4610,11
4611,11
4612,17
4613,17
4614,17
4615,8
4616,17
4617,36
4618,36
4619,36
4620,44
4621,44
4622,44
4623,44
4624,48
4625,48
4626,48
4627,48
4628,17
4629,19
4630,19
4631,19
4632,19
4633,20
4634,20
4635,17
4636,20
4637,10
4638,10
4639,12
4640,2
4641,19
4642,19
4643,19
4644,10
4645,10
4646,37
4647,37
4648,22
4649,37
4650,37
4651,37
4652,37
4653,24
4654,29
4655,29
4656,28
4657,29
4658,29
4659,29
4660,29
4661,21
4662,25
4663,25
4664,25
4665,28
4666,28
4667,28
4668,28
4669,28
4670,28
4671,28
4672,28
4673,28
4674,28
4675,25
4676,25
4677,25
4678,25
4679,28
4680,25
4681,28
4682,10
4683,21
4684,24
4685,24
4686,9
4687,9
4688,37
4689,37
4690,11
4691,19
4692,11
4693,11
4694,11
4695,11
4696,11
4697,11
4698,46
4699,37
4700,48
4701,42
4702,36
4703,37
4704,36
4705,36
4706,5
4707,36
4708,37
4709,37
4710,37
4711,19
4712,2
4713,10
4714,10
4715,10
4716,10
4717,10
4718,10
4719,10
4720,19
4721,19
4722,19
4723,19
4724,10
4725,10
4726,10
4727,37
4728,43
4729,35
4730,50
4731,50
4732,24
4733,24
4734,28
4735,28
4736,29
4737,13
4738,20
4739,20
4740,9
4741,9
4742,29
4743,29
4744,29
4745,29
4746,29
4747,29
4748,29
4749,29
4750,29
4751,29
4752,29
4753,29
4754,29
4755,29
4756,33
4757,33
4758,18
4759,11
4760,19
4761,10
4762,10
4763,46
4764,46
4765,46
4766,46
4767,46
4768,46
4769,46
4770,10
4771,10
4772,21
4773,10
4774,38
4775,10
4776,10
4777,27
4778,27
4779,27
4780,27
4781,27
4782,30
4783,37
4784,37
4785,26
4786,1
4787,1
4788,1
4789,7
4790,25
4791,20
4792,3
4793,3
4794,3
4795,21
4796,2
4797,19
4798,10
4799,17
4800,10
4801,12
4802,19
4803,10
4804,19
4805,17
4806,17
4807,10
4808,27
4809,37
4810,37
4811,21
4812,21
4813,19
4814,12
4815,22
4816,25
4817,22
4818,24
4819,9
4820,24
4821,24
4822,45
4823,24
4824,29
4825,9
4826,9
4827,9
4828,29
4829,29
4830,29
4831,29
4832,29
4833,29
4834,29
4835,29
4836,29
4837,29
4838,29
4839,29
4840,29
4841,29
4842,29
4843,29
4844,11
4845,37
4846,37
4847,20
4848,19
4849,19
4850,48
4851,46
4852,46
4853,46
4854,46
4855,12
4856,10
4857,38
4858,19
4859,10
4860,10
4861,27
4862,27
4863,27
4864,27
4865,27
4866,30
4867,46
4868,19
4869,18
4870,36
4871,48
4872,1
4873,48
4874,42
4875,33
4876,38
4877,21
4878,48
4879,37
4880,17
4881,10
4882,10
4883,10
4884,10
4885,7
4886,8
4887,7
4888,10
4889,10
4890,10
4891,10
4892,10
4893,10
4894,46
4895,37
4896,50
4897,21
4898,21
4899,25
4900,25
4901,25
4902,17
4903,17
4904,29
4905,51
4906,21
4907,21
4908,20
4909,17
4910,38
4911,5
4912,30
4913,34
4914,34
4915,34
4916,34
4917,34
4918,41
4919,41
4920,41
4921,34
4922,34
4923,41
4924,34
4925,36
4926,36
4927,25
4928,25
4929,25
4930,25
4931,20
4932,25
4933,47
4934,36
4935,36
4936,47
4937,36
4938,42
4939,38
4940,36
4941,36
4942,46
4943,46
4944,1
4945,46
4946,46
4947,5
4948,1
4949,8
4950,8
4951,8
4952,8
4953,8
4954,8
4955,8
4956,8
4957,10
4958,10
4959,8
4960,8
4961,8
4962,10
4963,10
4964,8
4965,10
4966,1
4967,1
4968,10
4969,10
4970,10
4971,17
4972,37
4973,21
4974,21
4975,21
4976,21
4977,21
4978,21
4979,21
4980,21
4981,21
4982,21
4983,21
4984,20
4985,1
4986,1
4987,15
4988,4
4989,38
4990,38
4991,30
4992,39
4993,30
4994,30
4995,30
4996,34
4997,34
4998,34
4999,34
5000,34
5001,34
5002,34
5003,34
5004,34
5005,34
5006,34
5007,34
5008,34
5009,34
5010,34
5011,34
5012,34
5013,47
5014,36
5015,25
5016,25
5017,25
5018,25
5019,25
5020,36
5021,36
5022,38
5023,37
5024,46
5025,25
5026,37
5027,46
5028,46
5029,29
5030,23
5031,23
5032,8
5033,2
5034,1
5035,1
5036,1
5037,1
5038,1
5039,1
5040,1
5041,1
5042,1
5043,1
5044,8
5045,8
5046,8
5047,1
5048,1
5049,8
5050,8
5051,8
5052,10
5053,8
5054,10
5055,11
5056,12
5057,10
5058,10
5059,8
5060,8
5061,10
5062,8
5063,1
5064,1
5065,19
5066,10
5067,37
5068,37
5069,37
5070,50
5071,50
5072,50
5073,50
5074,25
5075,21
5076,18
5077,13
5078,13
5079,21
5080,21
5081,50
5082,50
5083,50
5084,51
5085,51
5086,33
5087,31
5088,31
5089,31
5090,31
5091,33
5092,33
5093,33
5094,31
5095,31
5096,33
5097,31
5098,33
5099,33
5100,33
5101,33
5102,33
5103,5
5104,5
5105,5
5106,5
5107,33
5108,36
5109,50
5110,50
5111,51
5112,17
5113,26
5114,26
5115,26
5116,37
5117,26
5118,36
5119,36
5120,36
5121,5
5122,2
5123,10
5124,10
5125,10
5126,10
5127,10
5128,2
5129,1
5130,2
5131,10
5132,2
5133,10
5134,37
5135,10
5136,37
5137,37
5138,10
5139,37
5140,10
5141,10
5142,10
5143,10
5144,10
5145,10
5146,37
5147,10
5148,10
5149,10
5150,10
5151,10
5152,10
5153,10
5154,37
5155,21
5156,1
5157,51
5158,29
5159,29
5160,29
5161,48
5162,21
5163,21
5164,21
5165,45
5166,29
5167,45
5168,45
5169,38
5170,40
5171,31
5172,31
5173,31
5174,31
5175,31
5176,31
5177,31
5178,31
5179,31
5180,33
5181,31
5182,49
5183,49
5184,41
5185,18
5186,18
5187,18
5188,36
5189,38
5190,38
5191,37
5192,37
5193,49
5194,37
5195,37
5196,37
5197,37
5198,37
5199,37
5200,7
5201,7
5202,8
5203,7
5204,48
5205,44
5206,46
5207,46
5208,42
5209,12
5210,10
5211,10
5212,19
5213,10
5214,10
5215,12
5216,19
5217,10
5218,10
5219,10
5220,10
5221,10
5222,10
5223,37
5224,37
5225,37
5226,10
5227,10
5228,10
5229,37
5230,50
5231,50
5232,41
5233,21
5234,3
5235,24
5236,37
5237,50
5238,12
5239,36
5240,41
5241,32
5242,32
5243,32
5244,32
5245,32
5246,32
5247,29
5248,32
5249,32
5250,31
5251,32
5252,32
5253,32
5254,32
5255,32
5256,1
5257,1
5258,1
5259,1
5260,32
5261,49
5262,32
5263,32
5264,48
5265,48
5266,41
5267,41
5268,48
5269,48
5270,48
5271,48
5272,8
5273,14
5274,14
5275,37
5276,37
5277,37
5278,43
5279,43
5280,43
5281,36
5282,50
5283,48
5284,36
5285,44
5286,44
5287,10
5288,44
5289,18
5290,18
5291,10
5292,10
5293,10
5294,10
5295,10
5296,10
5297,10
5298,10
5299,10
5300,10
5301,10
5302,46
5303,10
5304,10
5305,10
5306,10
5307,10
5308,10
5309,10
5310,10
5311,10
5312,10
5313,10
5314,10
5315,10
5316,46
5317,46
5318,37
5319,50
5320,50
5321,50
5322,25
5323,20
5324,24
5325,29
5326,28
5327,24
5328,24
5329,45
5330,45
5331,45
5332,45
5333,40
5334,40
5335,33
5336,31
5337,31
5338,32
5339,32
5340,32
5341,32
5342,31
5343,31
5344,31
5345,40
5346,40
5347,40
5348,40
5349,40
5350,50
5351,50
5352,50
5353,50
5354,40
5355,50
5356,50
5357,40
5358,44
5359,32
5360,45
5361,7
5362,37
5363,37
5364,44
5365,7
5366,45
5367,27
5368,50
5369,28
5370,50
5371,28
5372,50
5373,50
5374,50
5375,10
5376,10
5377,17
5378,17
5379,17
5380,10
5381,10
5382,10
5383,10
5384,10
5385,1
5386,10
5387,10
5388,10
5389,17
5390,19
5391,19
5392,10
5393,10
5394,10
5395,27
5396,50
5397,50
5398,50
5399,50
5400,29
5401,29
5402,29
5403,29
5404,29
5405,29
5406,29
5407,29
5408,29
5409,31
5410,18
5411,13
5412,13
5413,33
5414,33
5415,33
5416,31
5417,31
5418,31
5419,40
5420,32
5421,40
5422,40
5423,40
5424,40
5425,40
5426,33
5427,33
5428,40
5429,40
5430,40
5431,40
5432,40
5433,40
5434,40
5435,18
5436,29
5437,24
5438,50
5439,44
5440,44
5441,44
5442,44
5443,37
5444,22
5445,8
5446,5
5447,5
5448,25
5449,27
5450,50
5451,47
5452,47
5453,48
5454,48
5455,46
5456,10
5457,10
5458,10
5459,19
5460,19
5461,10
5462,17
5463,19
5464,10
5465,8
5466,10
5467,10
5468,10
5469,10
5470,10
5471,10
5472,10
5473,10
5474,10
5475,10
5476,10
5477,10
5478,50
5479,50
5480,21
5481,50
5482,29
5483,29
5484,29
5485,29
5486,29
5487,29
5488,31
5489,31
5490,31
5491,31
5492,29
5493,33
5494,33
5495,31
5496,31
5497,33
5498,33
5499,33
5500,33
5501,40
5502,40
5503,40
5504,33
5505,33
5506,40
5507,33
5508,33
5509,33
5510,33
5511,31
5512,33
5513,33
5514,33
5515,33
5516,33
5517,33
5518,51
5519,50
5520,46
5521,37
5522,46
5523,46
5524,46
5525,36
5526,36
5527,45
5528,23
5529,23
5530,8
5531,37
5532,48
5533,48
5534,48
5535,48
5536,46
5537,10
5538,46
5539,46
5540,46
5541,46
5542,42
5543,19
5544,10
5545,19
5546,10
5547,10
5548,10
5549,10
5550,10
5551,19
5552,10
5553,10
5554,10
5555,10
5556,19
5557,19
5558,10
5559,19
5560,19
5561,20
5562,10
5563,10
5564,10
5565,37
5566,37
5567,37
5568,36
5569,38
5570,38
5571,21
5572,31
5573,31
5574,21
5575,42
5576,48
5577,32
5578,29
5579,42
5580,1
5581,1
5582,1
5583,1
5584,4
5585,4
5586,34
5587,34
5588,34
5589,34
5590,14
5591,4
5592,4
5593,34
5594,34
5595,34
5596,34
5597,34
5598,34
5599,34
5600,34
5601,34
5602,34
5603,34
5604,14
5605,14
5606,5
5607,5
5608,47
5609,50
5610,10
5611,45
5612,25
5613,25
5614,37
5615,36
5616,36
5617,45
5618,36
5619,36
5620,25
5621,38
5622,38
5623,38
5624,25
5625,36
5626,36
5627,46
5628,36
5629,4
5630,10
5631,19
5632,19
5633,19
5634,19
5635,10
5636,12
5637,12
5638,17
5639,12
5640,12
5641,19
5642,12
5643,10
5644,17
5645,17
5646,17
5647,17
5648,17
5649,1
5650,1
5651,12
5652,12
5653,12
5654,19
5655,10
5656,12
5657,12
5658,50
5659,50
5660,25
5661,25
5662,21
5663,21
5664,21
5665,21
5666,21
5667,21
5668,21
5669,21
5670,41
5671,41
5672,30
5673,34
5674,34
5675,30
5676,34
5677,34
5678,34
5679,36
5680,41
5681,41
5682,41
5683,34
5684,34
5685,34
5686,41
5687,41
5688,41
5689,41
5690,41
5691,41
5692,46
5693,46
5694,46
5695,44
5696,12
5697,12
5698,25
5699,20
5700,20
5701,25
5702,38
5703,45
5704,38
5705,38
5706,36
5707,38
5708,12
5709,8
5710,8
5711,38
5712,48
5713,46
5714,46
5715,19
5716,19
5717,19
5718,19
5719,19
5720,19
5721,10
5722,10
5723,37
5724,10
5725,10
5726,10
5727,37
5728,36
5729,36
5730,38
5731,36
5732,46
5733,46
5734,46
5735,21
5736,50
5737,10
5738,10
5739,12
5740,16
5741,23
5742,23
5743,23
5744,21
5745,21
5746,17
5747,50
5748,50
5749,29
5750,29
5751,29
5752,50
5753,37
5754,37
5755,37
5756,37
5757,37
5758,1
5759,1
5760,43
5761,1
5762,49
5763,49
5764,50
5765,50
5766,49
5767,49
5768,50
5769,50
5770,50
5771,50
5772,50
5773,50
5774,50
5775,24
5776,50
5777,24
5778,25
5779,25
5780,25
5781,25
5782,25
5783,25
5784,50
5785,50
5786,39
5787,41
5788,48
5789,46
5790,46
5791,48
5792,48
5793,42
5794,42
5795,48
5796,48
5797,48
5798,22
5799,22
5800,22
5801,8
5802,8
5803,8
5804,36
5805,19
5806,19
5807,19
5808,19
5809,19
5810,19
5811,19
5812,12
5813,12
5814,12
5815,10
5816,36
5817,36
5818,50
5819,50
5820,50
5821,45
5822,45
5823,44
5824,23
5825,12
5826,12
5827,25
5828,17
5829,22
5830,17
5831,17
5832,17
5833,17
5834,17
5835,16
5836,29
5837,29
5838,42
5839,42
5840,42
5841,46
5842,46
5843,46
5844,46
5845,46
5846,46
5847,46
5848,50
5849,46
5850,46
5851,46
5852,46
5853,46
5854,46
5855,50
5856,46
5857,46
5858,46
5859,46
5860,46
5861,46
5862,46
5863,46
5864,46
5865,46
5866,46
5867,46
5868,50
5869,50
5870,25
5871,25
5872,25
5873,25
5874,25
5875,25
5876,50
5877,48
5878,48
5879,48
5880,23
5881,23
5882,23
5883,38
5884,30
5885,46
5886,8
5887,38
5888,8
5889,44
5890,10
5891,8
5892,8
5893,8
5894,2
5895,10
5896,1
5897,19
5898,10
5899,10
5900,10
5901,37
5902,21
5903,21
5904,50
5905,25
5906,25
5907,24
5908,24
5909,36
5910,36
5911,42
5912,38
5913,27
5914,27
5915,36
5916,36
5917,36
5918,36
5919,36
5920,36
5921,36
5922,50
5923,50
5924,45
5925,36
5926,36
5927,43
5928,50
5929,43
5930,5
5931,43
5932,50
5933,50
5934,43
5935,49
5936,49
5937,49
5938,44
5939,5
5940,5
5941,5
5942,5
5943,5
5944,36
5945,36
5946,36
5947,36
5948,36
5949,36
5950,36
5951,25
5952,25
5953,36
5954,36
5955,36
5956,36
5957,37
5958,47
5959,48
5960,48
5961,47
5962,48
5963,46
5964,10
5965,1
5966,8
5967,1
5968,1
5969,1
5970,1
5971,1
5972,1
5973,10
5974,10
5975,10
5976,10
5977,10
5978,10
5979,10
5980,10
5981,10
5982,10
5983,10
5984,46
5985,10
5986,37
5987,21
5988,21
5989,45
5990,3
5991,25
5992,25
5993,24
5994,18
5995,50
5996,36
5997,36
5998,36
5999,36
6000,36
6001,25
6002,25
6003,36
6004,45
6005,38
6006,36
6007,36
6008,36
6009,36
6010,8
6011,8
6012,8
6013,8
6014,8
6015,1
6016,23
6017,36
6018,36
6019,43
6020,43
6021,43
6022,43
6023,43
6024,37
6025,10
6026,38
6027,37
6028,10
6029,17
6030,17
6031,10
6032,8
6033,1
6034,12
6035,10
6036,10
6037,10
6038,10
6039,10
6040,10
6041,8
6042,10
6043,10
6044,10
6045,10
6046,10
6047,10
6048,10
6049,10
6050,10
6051,10
6052,10
6053,10
6054,10
6055,12
6056,12
6057,10
6058,8
6059,17
6060,17
6061,17
6062,17
6063,8
6064,1
6065,17
6066,17
6067,17
6068,46
6069,22
6070,22
6071,22
6072,23
6073,3
6074,26
6075,10
6076,41
6077,41
6078,43
6079,43
6080,37
6081,37
6082,37
6083,37
6084,37
6085,37
6086,37
6087,37
6088,37
6089,37
6090,37
6091,37
6092,37
6093,37
6094,37
6095,37
6096,37
6097,37
6098,37
6099,37
6100,37
6101,37
6102,37
6103,37
6104,37
6105,37
6106,37
6107,43
6108,1
6109,37
6110,37
6111,32
6112,43
6113,32
6114,36
6115,36
6116,36
6117,22
6118,22
6119,13
6120,10
6121,46
6122,17
6123,8
6124,8
6125,10
6126,19
6127,19
6128,19
6129,10
6130,19
6131,17
6132,17
6133,8
6134,8
6135,8
6136,8
6137,10
6138,10
6139,10
6140,17
6141,10
6142,10
6143,10
6144,10
6145,10
6146,10
6147,10
6148,10
6149,10
6150,10
6151,10
6152,10
6153,10
6154,10
6155,10
6156,10
6157,10
6158,10
6159,10
6160,10
6161,10
6162,10
6163,24
6164,50
6165,45
6166,50
6167,25
6168,25
6169,25
6170,22
6171,10
6172,37
6173,37
6174,41
6175,37
6176,37
6177,37
6178,37
6179,37
6180,37
6181,37
6182,37
6183,37
6184,37
6185,37
6186,37
6187,37
6188,37
6189,1
6190,37
6191,37
6192,37
6193,37
6194,37
6195,37
6196,37
6197,43
6198,37
6199,37
6200,37
6201,37
6202,38
6203,38
6204,47
6205,44
6206,3
6207,3
6208,10
6209,10
6210,10
6211,10
6212,10
6213,10
6214,10
6215,10
6216,10
6217,10
6218,10
6219,10
6220,10
6221,10
6222,10
6223,10
6224,10
6225,10
6226,10
6227,10
6228,19
6229,19
6230,19
6231,19
6232,19
6233,19
6234,19
6235,19
6236,19
6237,19
6238,46
6239,50
6240,36
6241,50
6242,21
6243,21
6244,21
6245,21
6246,1
6247,1
6248,1
6249,2
6250,21
6251,13
6252,13
6253,18
6254,38
6255,38
6256,38
6257,44
6258,1
6259,1
6260,1
6261,5
6262,5
6263,5
6264,5
6265,5
6266,4
6267,38
6268,38
6269,38
6270,38
6271,38
6272,46
6273,10
6274,10
6275,14
6276,9
6277,46
6278,46
6279,46
6280,46
6281,46
6282,46
6283,46
6284,48
6285,48
6286,48
6287,44
6288,11
6289,8
6290,1
6291,38
6292,38
6293,5
6294,5
6295,36
6296,44
6297,46
6298,8
6299,3
6300,3
6301,1
6302,3
6303,3
6304,5
6305,3
6306,3
6307,3
6308,3
6309,3
6310,3
6311,3
6312,19
6313,19
6314,10
6315,19
6316,2
6317,19
6318,19
6319,19
6320,27
6321,32
6322,36
6323,36
6324,38
6325,45
6326,18
6327,13
6328,13
6329,18
6330,21
6331,2
6332,1
6333,2
6334,2
6335,8
6336,38
6337,38
6338,38
6339,38
6340,38
6341,38
6342,38
6343,5
6344,38
6345,38
6346,46
6347,46
6348,46
6349,46
6350,38
6351,38
6352,38
6353,8
6354,36
6355,46
6356,10
6357,10
6358,13
6359,10
6360,46
6361,44
6362,48
6363,48
6364,36
6365,8
6366,5
6367,3
6368,44
6369,44
6370,43
6371,46
6372,46
6373,10
6374,44
6375,1
6376,1
6377,3
6378,3
6379,3
6380,3
6381,3
6382,3
6383,3
6384,3
6385,3
6386,3
6387,3
6388,12
6389,19
6390,19
6391,19
6392,19
6393,19
6394,19
6395,19
6396,19
6397,1
6398,1
6399,1
6400,1
6401,2
6402,2
6403,17
6404,2
6405,2
6406,2
6407,1
6408,1
6409,1
6410,1
6411,21
6412,37
6413,36
6414,50
6415,25
6416,21
6417,21
6418,21
6419,1
6420,21
6421,21
6422,21
6423,21
6424,13
6425,1
6426,1
6427,20
6428,24
6429,18
6430,1
6431,42
6432,33
6433,23
6434,23
6435,42
6436,50
6437,50
6438,50
6439,50
6440,50
6441,50
6442,50
6443,50
6444,50
6445,50
6446,42
6447,42
6448,42
6449,39
6450,39
6451,39
6452,39
6453,40
6454,41
6455,41
6456,38
6457,25
6458,25
6459,25
6460,50
6461,14
6462,14
6463,32
6464,36
6465,36
6466,36
6467,8
6468,36
6469,50
6470,48
6471,50
6472,48
6473,36
6474,45
6475,8
6476,44
6477,1
6478,2
6479,2
6480,1
6481,1
6482,1
6483,17
6484,19
6485,19
6486,10
6487,19
6488,19
6489,10
6490,10
6491,19
6492,36
6493,36
6494,36
6495,21
6496,21
6497,25
6498,20
6499,20
6500,20
6501,20
6502,20
6503,20
6504,23
6505,5
6506,46
6507,46
6508,46
6509,46
6510,46
6511,46
6512,42
6513,42
6514,42
6515,40
6516,39
6517,40
6518,31
6519,40
6520,38
6521,38
6522,42
6523,41
6524,42
6525,42
6526,36
6527,36
6528,36
6529,31
6530,38
6531,38
6532,38
6533,38
6534,42
6535,42
6536,36
6537,42
6538,36
6539,36
6540,36
6541,50
6542,50
6543,50
6544,50
6545,14
6546,14
6547,36
6548,12
6549,10
6550,44
6551,1
6552,1
6553,1
6554,10
6555,10
6556,1
6557,2
6558,2
6559,2
6560,2
6561,2
6562,19
6563,7
6564,8
6565,10
6566,8
6567,8
6568,19
6569,19
6570,19
6571,19
6572,19
6573,19
6574,19
6575,19
6576,17
6577,37
6578,37
6579,37
6580,50
6581,36
6582,41
6583,21
6584,47
6585,41
6586,42
6587,42
6588,40
6589,40
6590,33
6591,33
6592,40
6593,40
6594,34
6595,34
6596,6
6597,34
6598,6
6599,10
6600,45
6601,10
6602,10
6603,10
6604,40
6605,40
6606,40
6607,40
6608,10
6609,40
6610,10
6611,10
6612,40
6613,13
6614,18
6615,33
6616,38
6617,21
6618,13
6619,10
6620,40
6621,33
6622,50
6623,45
6624,50
6625,50
6626,50
6627,48
6628,48
6629,48
6630,48
6631,48
6632,46
6633,44
6634,44
6635,44
6636,44
6637,44
6638,43
6639,41
6640,36
6641,42
6642,42
6643,43
6644,8
6645,45
6646,45
6647,48
6648,48
6649,46
6650,46
6651,42
6652,42
6653,10
6654,10
6655,10
6656,7
6657,46
6658,46
6659,46
6660,36
6661,46
6662,36
6663,36
6664,22
6665,21
6666,21
6667,42
6668,50
6669,40
6670,33
6671,40
6672,40
6673,40
6674,40
6675,40
6676,40
6677,40
6678,40
6679,6
6680,6
6681,40
6682,6
6683,6
6684,1
6685,40
6686,48
6687,40
6688,40
6689,50
6690,50
6691,50
6692,50
6693,50
6694,46
6695,46
6696,46
6697,46
6698,46
6699,46
6700,46
6701,46
6702,40
6703,50
6704,50
6705,50
6706,40
6707,40
6708,50
6709,46
6710,46
6711,40
6712,50
6713,48
6714,48
6715,26
6716,48
6717,48
6718,48
6719,48
6720,8
6721,48
6722,18
6723,36
6724,4
6725,1
6726,19
6727,15
6728,5
6729,15
6730,36
6731,36
6732,44
6733,44
6734,44
6735,10
6736,10
6737,10
6738,42
6739,46
6740,46
6741,36
6742,36
6743,36
6744,44
6745,36
6746,36
6747,37
6748,37
6749,38
6750,47
6751,41
6752,41
6753,45
6754,45
6755,41
6756,41
6757,41
6758,1
6759,1
6760,41
6761,47
6762,47
6763,47
6764,15
6765,42
6766,42
6767,42
6768,41
6769,41
6770,42
6771,41
6772,41
6773,41
6774,42
6775,42
6776,41
6777,41
6778,41
6779,41
6780,41
6781,41
6782,41
6783,47
6784,41
6785,41
6786,5
6787,45
6788,5
6789,41
6790,41
6791,41
6792,45
6793,45
6794,47
6795,45
6796,50
6797,50
6798,37
6799,43
6800,43
6801,48
6802,44
6803,44
6804,45
6805,45
6806,45
6807,46
6808,46
6809,5
6810,5
6811,8
6812,8
6813,46
6814,46
6815,46
6816,46
6817,44
6818,3
6819,3
6820,44
6821,44
6822,44
6823,46
6824,42
6825,42
6826,42
6827,42
6828,42
6829,42
6830,42
6831,46
6832,46
6833,46
6834,36
6835,37
6836,10
6837,27
6838,27
6839,27
6840,47
6841,47
6842,47
6843,21
6844,20
6845,20
6846,21
6847,20
6848,47
6849,47
6850,41
6851,41
6852,42
6853,42
6854,41
6855,41
6856,41
6857,42
6858,42
6859,42
6860,42
6861,42
6862,41
6863,41
6864,41
6865,41
6866,41
6867,41
6868,41
6869,41
6870,47
6871,47
6872,50
6873,50
6874,50
6875,50
6876,37
6877,7
6878,36
6879,8
6880,44
6881,44
6882,44
6883,44
6884,44
6885,44
6886,36
6887,36
6888,8
6889,8
6890,8
6891,8
6892,46
6893,48
6894,48
6895,43
6896,46
6897,46
6898,46
6899,46
6900,44
6901,44
6902,44
6903,44
6904,44
6905,42
6906,46
6907,46
6908,45
6909,45
6910,19
6911,41
6912,21
6913,21
6914,21
6915,48
6916,4
6917,40
6918,50
6919,42
6920,42
6921,42
6922,40
6923,40
6924,40
6925,40
6926,40
6927,40
6928,40
6929,40
6930,40
6931,42
6932,40
6933,40
6934,42
6935,40
6936,16
6937,6
6938,6
6939,6
6940,6
6941,6
6942,6
6943,40
6944,36
6945,40
6946,34
6947,41
6948,42
6949,40
6950,48
6951,48
6952,1
6953,1
6954,41
6955,1
6956,41
6957,1
6958,4
6959,18
6960,42
6961,50
6962,50
6963,50
6964,50
6965,49
6966,44
6967,7
6968,48
6969,48
6970,48
6971,48
6972,48
6973,44
6974,44
6975,40
6976,38
6977,22
6978,44
6979,44
6980,8
6981,8
6982,8
6983,45
6984,42
6985,42
6986,46
6987,46
6988,46
6989,42
6990,42
6991,42
6992,42
6993,42
6994,42
6995,42
6996,42
6997,46
6998,46
6999,42
7000,44
7001,46
7002,44
7003,44
7004,44
7005,43
7006,43
7007,31
7008,41
7009,18
7010,18
7011,50
7012,42
7013,42
7014,18
7015,18
7016,18
7017,18
7018,18
7019,18
7020,18
7021,18
7022,18
7023,41
7024,18
7025,18
7026,18
7027,40
7028,41
7029,41
7030,41
7031,41
7032,41
7033,41
7034,41
7035,41
7036,41
7037,41
7038,41
7039,41
7040,41
7041,41
7042,41
7043,41
7044,38
7045,41
7046,42
7047,50
7048,33
7049,51
7050,50
7051,50
7052,50
7053,29
7054,29
7055,29
7056,29
7057,33
7058,21
7059,21
7060,41
7061,41
7062,48
7063,8
7064,44
7065,43
7066,42
7067,42
7068,44
7069,44
7070,44
7071,44
7072,42
7073,42
7074,42
7075,42
7076,46
7077,44
7078,46
7079,46
7080,42
7081,46
7082,46
7083,46
7084,46
7085,46
7086,46
7087,46
7088,36
7089,36
7090,36
7091,36
7092,36
7093,45
7094,45
7095,38
7096,21
7097,21
7098,1
7099,1
7100,1
7101,1
7102,1
7103,43
7104,43
7105,43
7106,43
7107,43
7108,43
7109,43
7110,43
7111,43
7112,43
7113,43
7114,42
7115,42
7116,43
7117,43
7118,43
7119,43
7120,43
7121,43
7122,43
7123,44
7124,44
7125,42
7126,44
7127,44
7128,44
7129,44
7130,44
7131,42
7132,10
7133,44
7134,42
7135,44
7136,42
7137,42
7138,46
7139,43
7140,43
7141,43
7142,42
7143,42
7144,43
7145,43
7146,22
7147,3
7148,8
7149,43
7150,43
7151,43
7152,42
7153,42
7154,46
7155,44
7156,42
7157,44
7158,42
7159,42
7160,46
7161,46
7162,46
7163,46
7164,46
7165,46
7166,46
7167,46
7168,46
7169,46
7170,36
7171,36
7172,37
7173,17
7174,17
7175,17
7176,46
7177,23
7178,21
7179,21
7180,21
7181,12
7182,42
7183,38
7184,12
7185,46
7186,46
7187,42
7188,42
7189,43
7190,43
7191,43
7192,46
7193,46
7194,46
7195,46
7196,46
7197,43
7198,46
7199,46
7200,46
7201,46
7202,46
7203,46
7204,46
7205,43
7206,43
7207,43
7208,43
7209,43
7210,43
7211,43
7212,43
7213,36
7214,47
7215,47
7216,46
7217,46
7218,46
7219,46
7220,44
7221,42
7222,42
7223,42
7224,42
7225,42
7226,44
7227,44
7228,42
7229,42
7230,46
7231,46
7232,48
7233,42
7234,44
7235,44
7236,46
7237,46
7238,46
7239,42
7240,42
7241,42
7242,42
7243,44
7244,44
7245,44
7246,44
7247,44
7248,44
7249,44
7250,43
7251,43
7252,7
7253,7
7254,7
7255,3
7256,3
7257,1
7258,7
7259,8
7260,3
7261,5
7262,8
7263,8
7264,44
7265,44
7266,8
7267,44
7268,44
7269,44
7270,44
7271,44
7272,44
7273,44
7274,46
7275,42
7276,42
7277,44
7278,44
7279,44
7280,44
7281,44
7282,44
7283,44
7284,44
7285,44
7286,44
7287,44
7288,44
7289,44
7290,44
7291,44
7292,44
7293,44
7294,44
7295,44
7296,44
7297,44
7298,44
7299,44
7300,44
7301,44
7302,44
7303,3
7304,44
7305,42
7306,42
7307,42
7308,44
7309,44
7310,44
7311,44
7312,44
7313,44
7314,44
7315,3
7316,44
7317,44
7318,44
7319,44
7320,44
7321,44
7322,44
7323,44
7324,42
7325,44
7326,44
7327,8
7328,8
7329,8
7330,8
7331,8
7332,8
7333,3
7334,8
7335,5
7336,5
7337,3
7338,44
7339,3
7340,46
7341,46
7342,46
7343,44
7344,44
7345,45
7346,44
7347,12
7348,12
7349,12
7350,46
7351,46
7352,46
7353,46
7354,46
7355,46
7356,46
7357,3
7358,3
7359,1
7360,4
7361,46
7362,38
7363,44
7364,44
7365,38
7366,46
7367,46
7368,46
7369,7
7370,5
7371,44
7372,4
7373,4
7374,5
7375,3
7376,7
7377,38
7378,36
7379,7
7380,8
7381,8
7382,8
7383,12
7384,12
7385,12
7386,46
7387,46
7388,46
7389,8
7390,8
7391,5
7392,5
7393,8
7394,5
7395,3
7396,44
7397,46
7398,44
7399,8
7400,8
7401,8
7402,5
7403,3
7404,3
7405,3
7406,8
7407,22
7408,8
7409,8
7410,8
7411,44
7412,42
7413,42
7414,42
7415,46
7416,46
7417,45
7418,38
7419,36
7420,8
7421,5
7422,5
7423,25
7424,50
7425,50
7426,50
7427,50
7428,50
7429,50
7430,50
7431,50
7432,50
7433,50
7434,50
7435,50
7436,45
7437,45
7438,45
7439,45
7440,45
7441,45
7442,45
7443,45
7444,45
7445,45
7446,45
7447,45
7448,45
7449,45
7450,45
7451,45
7452,45
7453,47
7454,45
7455,45
7456,47
7457,45
7458,45
7459,45
7460,45
7461,45
7462,45
7463,45
7464,45
7465,45
7466,45
7467,45
7468,45
7469,45
7470,43
7471,43
7472,43
7473,41
7474,43
7475,37
7476,50
7477,40
7478,22
7479,22
7480,8
7481,43
7482,48
7483,48
7484,48
7485,48
7486,46
7487,46
7488,44
7489,44
7490,44
7491,44
7492,44
7493,44
7494,44
7495,44
7496,42
7497,46
7498,46
7499,46
7500,43
7501,43
7502,43
7503,43
7504,45
7505,45
7506,50
7507,50
7508,50
7509,25
7510,50
7511,50
7512,25
7513,25
7514,50
7515,50
7516,50
7517,45
7518,45
7519,45
7520,45
7521,45
7522,45
7523,45
7524,45
7525,45
7526,45
7527,45
7528,45
7529,45
7530,45
7531,45
7532,45
7533,45
7534,45
7535,45
7536,45
7537,45
7538,45
7539,45
7540,45
7541,45
7542,45
7543,45
7544,45
7545,45
7546,45
7547,45
7548,45
7549,45
7550,45
7551,45
7552,45
7553,45
7554,45
7555,3
7556,1
7557,5
7558,5
7559,36
7560,43
7561,43
7562,43
7563,41
7564,42
7565,48
7566,22
7567,3
7568,8
7569,8
7570,5
7571,8
7572,43
7573,48
7574,48
7575,42
7576,42
7577,42
7578,42
7579,48
7580,46
7581,44
7582,44
7583,46
7584,48
7585,48
7586,44
7587,46
7588,46
7589,45
7590,5
7591,8
7592,8
7593,8
7594,8
7595,5
7596,5
7597,5
7598,5
7599,5
7600,5
7601,5
7602,13
7603,13
7604,13
7605,13
7606,13
7607,46
7608,1
7609,4
7610,1
7611,4
7612,5
7613,5
7614,5
7615,47
7616,46
7617,46
7618,46
7619,46
7620,47
7621,47
7622,5
7623,46
7624,46
7625,42
7626,42
7627,46
7628,46
7629,46
7630,46
7631,46
7632,50
7633,50
7634,50
7635,37
7636,46
7637,46
7638,46
7639,46
7640,46
7641,46
7642,50
7643,50
7644,4
7645,5
7646,5
7647,5
7648,5
7649,44
7650,44
7651,47
7652,47
7653,47
7654,47
7655,50
7656,50
7657,47
7658,47
7659,5
7660,5
7661,5
7662,5
7663,44
7664,44
7665,44
7666,42
7667,44
7668,44
7669,44
7670,44
7671,46
7672,46
7673,46
7674,46
7675,46
7676,46
7677,46
7678,48
7679,4
7680,33
7681,33
7682,46
7683,46
7684,46
7685,46
7686,29
7687,46
7688,46
7689,23
7690,46
7691,38
7692,38
7693,2
7694,42
7695,46
7696,46
7697,46
7698,46
7699,46
7700,46
7701,46
7702,46
7703,46
7704,46
7705,46
7706,46
7707,46
7708,46
7709,46
7710,46
7711,46
7712,46
7713,46
7714,46
7715,46
7716,46
7717,46
7718,50
7719,50
7720,50
7721,50
7722,47
7723,46
7724,46
7725,46
7726,46
7727,46
7728,44
7729,44
7730,37
7731,14
7732,25
7733,46
7734,47
7735,48
7736,48
7737,48
7738,48
7739,47
7740,47
7741,42
7742,44
7743,44
7744,44
7745,44
7746,44
7747,44
7748,50
7749,48
7750,5
7751,7
7752,8
7753,48
7754,48
7755,46
7756,47
7757,43
7758,42
7759,50
7760,37
7761,37
7762,50
7763,50
7764,10
7765,25
7766,47
7767,23
7768,19
7769,42
7770,47
7771,47
7772,47
7773,47
7774,25
7775,25
7776,47
7777,47
7778,45
7779,45
7780,45
7781,46
7782,46
7783,46
7784,47
7785,47
7786,47
7787,47
7788,47
7789,47
7790,41
7791,38
7792,41
7793,41
7794,47
7795,47
7796,47
7797,47
7798,47
7799,47
7800,47
7801,47
7802,50
7803,37
7804,36
7805,44
7806,44
7807,44
7808,44
7809,36
7810,5
7811,5
7812,45
7813,36
7814,36
7815,36
7816,36
7817,36
7818,36
7819,36
7820,37
7821,37
7822,36
7823,42
7824,42
7825,43
7826,48
7827,48
7828,48
7829,42
7830,42
7831,42
7832,42
7833,45
7834,11
7835,11
7836,11
7837,11
7838,11
7839,11
7840,11
7841,11
7842,11
7843,13
7844,10
7845,10
7846,38
7847,46
7848,47
7849,37
7850,37
7851,25
7852,47
7853,47
7854,47
7855,47
7856,47
7857,47
7858,47
7859,47
7860,47
7861,41
7862,19
7863,47
7864,47
7865,41
7866,41
7867,42
7868,42
7869,42
7870,41
7871,41
7872,47
7873,41
7874,5
7875,46
7876,5
7877,5
7878,5
7879,5
7880,41
7881,5
7882,5
7883,5
7884,5
7885,46
7886,5
7887,5
7888,5
7889,5
7890,46
7891,47
7892,25
7893,50
7894,43
7895,43
7896,44
7897,44
7898,43
7899,44
7900,8
7901,22
7902,50
7903,50
7904,45
7905,45
7906,36
7907,25
7908,42
7909,36
7910,36
7911,50
7912,48
7913,47
7914,47
7915,47
7916,48
7917,48
7918,46
7919,42
7920,42
7921,42
7922,44
7923,44
7924,46
7925,46
7926,42
7927,45
7928,42
7929,43
7930,48
7931,48
7932,48
7933,48
7934,48
7935,48
7936,48
7937,48
7938,48
7939,48
7940,48
7941,48
7942,48
7943,48
7944,48
7945,48
7946,48
7947,48
7948,48
7949,48
7950,48
7951,48
7952,48
7953,48
7954,48
7955,48
7956,48
7957,48
7958,48
7959,48
7960,48
7961,48
7962,48
7963,48
7964,48
7965,48
7966,48
7967,48
7968,48
7969,48
7970,33
7971,33
7972,42
7973,40
7974,36
7975,37
7976,37
7977,38
7978,25
7979,25
7980,36
7981,41
7982,8
7983,43
7984,46
7985,46
7986,44
7987,44
7988,44
7989,44
7990,44
7991,44
7992,44
7993,42
7994,44
7995,44
7996,44
7997,44
7998,44
7999,42
8000,44
8001,42
8002,42
8003,42
8004,42
8005,42
8006,46
8007,46
8008,46
8009,37
8010,21
8011,41
8012,48
8013,21
8014,11
8015,48
8016,23
8017,48
8018,48
8019,48
8020,48
8021,48
8022,48
8023,48
8024,48
8025,48
8026,48
8027,48
8028,48
8029,48
8030,48
8031,48
8032,48
8033,48
8034,50
8035,50
8036,48
8037,48
8038,48
8039,48
8040,46
8041,46
8042,51
8043,51
8044,50
8045,50
8046,50
8047,50
8048,50
8049,46
8050,46
8051,40
8052,40
8053,38
8054,50
8055,47
8056,47
8057,47
8058,48
8059,48
8060,48
8061,48
8062,48
8063,48
8064,48
8065,46
8066,46
8067,46
8068,46
8069,42
8070,42
8071,42
8072,42
8073,42
8074,42
8075,42
8076,42
8077,42
8078,42
8079,42
8080,42
8081,42
8082,48
8083,48
8084,46
8085,46
8086,42
8087,46
8088,42
8089,42
8090,42
8091,42
8092,42
8093,42
8094,42
8095,42
8096,42
8097,42
8098,42
8099,42
8100,42
8101,42
8102,42
8103,42
8104,42
8105,42
8106,42
8107,42
8108,42
8109,43
8110,22
8111,17
8112,20
8113,20
8114,17
8115,29
8116,29
8117,1
8118,17
8119,20
8120,18
8121,18
8122,21
8123,21
8124,21
8125,21
8126,21
8127,21
8128,21
8129,1
8130,1
8131,1
8132,1
8133,1
8134,45
8135,5
8136,36
8137,44
8138,36
8139,36
8140,44
8141,36
8142,36
8143,36
8144,36
8145,38
8146,42
8147,21
8148,37
8149,37
8150,37
8151,43
8152,43
8153,49
8154,44
8155,38
8156,38
8157,38
8158,38
8159,38
8160,38
8161,38
8162,38
8163,38
8164,38
8165,36
8166,44
8167,36
8168,44
8169,44
8170,46
8171,46
8172,46
8173,36
8174,44
8175,44
8176,10
8177,10
8178,10
8179,44
8180,10
8181,46
8182,46
8183,46
8184,10
8185,10
8186,10
8187,10
8188,10
8189,10
8190,10
8191,44
8192,44
8193,44
8194,44
8195,3
8196,21
8197,17
8198,17
8199,17
8200,17
8201,1
8202,1
8203,1
8204,1
8205,1
8206,7
8207,50
8208,50
8209,50
8210,1
8211,7
8212,1
8213,1
8214,1
8215,1
8216,1
8217,1
8218,1
8219,1
8220,35
8221,37
8222,49
8223,49
8224,49
8225,49
8226,49
8227,49
8228,49
8229,49
8230,49
8231,49
8232,49
8233,49
8234,36
8235,49
8236,49
8237,49
8238,36
8239,36
8240,49
8241,40
8242,18
8243,18
8244,36
8245,34
8246,37
8247,37
8248,49
8249,49
8250,49
8251,49
8252,49
8253,49
8254,49
8255,49
8256,37
8257,37
8258,8
8259,8
8260,8
8261,44
8262,8
8263,8
8264,42
8265,42
8266,42
8267,41
8268,42
8269,46
8270,46
8271,46
8272,42
8273,42
8274,42
8275,50
8276,25
8277,23
8278,47
8279,12
8280,45
8281,47
8282,43
8283,43
8284,43
8285,43
8286,36
8287,36
8288,36
8289,50
8290,43
8291,50
8292,41
8293,41
8294,41
8295,50
8296,50
8297,50
8298,50
8299,50
8300,50
8301,50
8302,50
8303,50
8304,50
8305,50
8306,50
8307,50
8308,50
8309,50
8310,50
8311,50
8312,50
8313,50
8314,50
8315,50
8316,50
8317,50
8318,42
8319,50
8320,50
8321,50
8322,50
8323,50
8324,50
8325,37
8326,37
8327,50
8328,50
8329,50
8330,50
8331,50
8332,37
8333,37
8334,37
8335,37
8336,37
8337,50
8338,50
8339,50
8340,50
8341,50
8342,50
8343,3
8344,3
8345,1
8346,38
8347,36
8348,48
8349,42
8350,50
8351,25
8352,50
8353,47
8354,47
8355,50
8356,47
8357,45
8358,50
8359,45
8360,21
8361,21
8362,21
8363,21
8364,50
8365,50
8366,42
8367,37
8368,50
8369,50
8370,50
8371,50
8372,50
8373,50
8374,50
8375,50
8376,45
8377,45
8378,50
8379,50
8380,50
8381,50
8382,37
8383,37
8384,21
8385,50
8386,50
8387,50
8388,50
8389,42
8390,42
8391,50
8392,50
8393,50
8394,50
8395,50
8396,50
8397,50
8398,42
8399,50
8400,50
8401,41
8402,41
8403,18
8404,45
8405,45
8406,21
8407,21
8408,21
8409,21
8410,1
8411,41
8412,10
8413,42
8414,42
8415,46
8416,46
8417,46
8418,36
8419,45
8420,36
8421,36
8422,36
8423,36
8424,36
8425,47
8426,47
8427,12
8428,12
8429,40
8430,12
8431,46
8432,46
8433,48
8434,48
8435,48
8436,47
8437,41
8438,41
8439,50
8440,38
8441,50
8442,50
8443,50
8444,49
8445,46
8446,46
8447,50
8448,50
8449,50
8450,50
8451,50
8452,50
8453,50
8454,50
8455,50
8456,50
8457,50
8458,50
8459,50
8460,50
8461,50
8462,50
8463,50
8464,50
8465,50
8466,50
8467,50
8468,50
8469,50
8470,50
8471,50
8472,50
8473,50
8474,50
8475,50
8476,50
8477,50
8478,50
8479,50
8480,50
8481,50
8482,50
8483,50
8484,50
8485,50
8486,50
8487,50
8488,50
8489,50
8490,50
8491,50
8492,50
8493,50
8494,50
8495,50
8496,50
8497,50
8498,50
8499,50
8500,50
8501,50
8502,50
8503,50
8504,50
8505,50
8506,25
8507,25
8508,25
8509,25
8510,50
8511,48
8512,48
8513,48
8514,42
8515,42
8516,5
8517,41
8518,48
8519,21
8520,21
8521,21
8522,41
8523,1
8524,1
8525,50
8526,50
8527,50
8528,50
8529,50
8530,50
8531,50
8532,50
8533,50
8534,50
8535,50
8536,50
8537,50
8538,50
8539,50
8540,50
8541,50
8542,50
8543,25
8544,50
8545,50
8546,50
8547,50
8548,50
8549,50
8550,50
8551,50
8552,50
8553,50
8554,50
8555,50
8556,50
8557,50
8558,50
8559,50
8560,50
8561,50
8562,50
8563,50
8564,25
8565,50
8566,50
8567,50
8568,25
8569,25
8570,25
8571,50
8572,50
8573,50
8574,50
8575,50
8576,50
8577,50
8578,50
8579,50
8580,50
8581,50
8582,40
8583,48
8584,48
8585,4
8586,4
8587,1
8588,1
8589,37
8590,50
8591,1
8592,1
8593,1
8594,5
8595,44
8596,44
8597,44
8598,44
8599,42
8600,38
8601,37
8602,25
8603,20
8604,20
8605,20
8606,37
8607,37
8608,37
8609,37
8610,37
8611,37
8612,37
8613,37
8614,29
8615,29
8616,29
8617,29
8618,27
8619,27
8620,48
8621,48
8622,48
8623,46
8624,46
8625,46
8626,33
8627,29
8628,33
8629,46
8630,46
8631,48
8632,46
8633,46
8634,46
8635,50
8636,48
8637,48
8638,4
8639,4
8640,4
8641,4
8642,48
8643,48
8644,48
8645,48
8646,48
8647,33
8648,33
8649,33
8650,33
8651,48
8652,33
8653,48
8654,49
8655,48
8656,48
8657,48
8658,48
8659,33
8660,33
8661,33
8662,29
8663,29
8664,46
8665,46
8666,46
8667,46
8668,33
8669,48
8670,48
8671,48
8672,48
8673,46
8674,46
8675,46
8676,46
8677,46
8678,46
8679,44
8680,44
8681,44
8682,43
8683,42
8684,47
8685,50
8686,37
8687,33
8688,33
8689,33
8690,29
8691,29
8692,29
8693,50
8694,50
8695,51
8696,49
8697,33
8698,33
8699,23
8700,48
8701,48
8702,48
8703,48
8704,48
8705,48
8706,48
8707,33
8708,33
8709,48
8710,4
8711,48
8712,33
8713,33
8714,33
8715,33
8716,33
8717,33
8718,33
8719,33
8720,33
8721,33
8722,49
8723,49
8724,27
8725,33
8726,33
8727,33
8728,33
8729,33
8730,33
8731,33
8732,33
8733,33
8734,46
8735,46
8736,46
8737,46
8738,49
8739,49
8740,49
8741,49
8742,37
8743,29
8744,50
8745,50
8746,50
8747,37
8748,37
8749,50
8750,43
8751,46
8752,46
8753,46
8754,46
8755,48
8756,48
8757,48
8758,48
8759,43
8760,48
8761,8
8762,8
8763,1
8764,1
8765,1
8766,1
8767,1
8768,1
8769,1
8770,1
8771,3
8772,3
8773,1
8774,1
8775,3
8776,3
8777,3
8778,3
8779,3
8780,3
8781,3
8782,3
8783,3
8784,3
8785,3
8786,3
8787,3
8788,3
8789,3
8790,1
8791,29
8792,1
8793,1
8794,1
8795,1
8796,1
8797,23
8798,1
8799,1
8800,1
8801,1
8802,1
8803,1
8804,1
8805,1
8806,1
8807,1
8808,1
8809,1
8810,1
8811,1
8812,1
8813,1
8814,1
8815,1
8816,1
8817,1
8818,1
8819,1
8820,1
8821,3
8822,3
8823,3
8824,1
8825,1
8826,2
8827,3
8828,3
8829,3
8830,3
8831,3
8832,3
8833,1
8834,1
8835,1
8836,1
8837,1
8838,1
8839,1
8840,1
8841,1
8842,1
8843,1
8844,1
8845,1
8846,1
8847,1
8848,1
8849,1
8850,1
8851,1
8852,1
8853,1
8854,1
8855,3
8856,3
8857,3
8858,3
8859,38
8860,38
8861,23
8862,3
8863,3
8864,3
8865,3
8866,1
8867,3
8868,3
8869,3
8870,23
8871,1
8872,20
8873,1
8874,1
8875,1
8876,1
8877,1
8878,1
8879,1
8880,10
8881,1
8882,1
8883,1
8884,1
8885,1
8886,1
8887,1
8888,1
8889,1
8890,1
8891,1
8892,1
8893,1
8894,1
8895,1
8896,1
8897,1
8898,1
8899,1
8900,1
8901,1
8902,1
8903,1
8904,1
8905,1
8906,1
8907,3
8908,1
8909,3
8910,1
8911,1
8912,1
8913,3
8914,1
8915,3
8916,1
8917,1
8918,1
8919,3
8920,3
8921,3
8922,3
8923,3
8924,3
8925,3
8926,3
8927,3
8928,3
8929,10
8930,2
8931,2
8932,10
8933,2
8934,10
8935,10
8936,2
8937,1
8938,1
8939,1
8940,3
8941,1
8942,1
8943,2
8944,2
8945,2
8946,2
8947,2
8948,2
8949,2
8950,2
8951,2
8952,2
8953,2
8954,2
8955,2
8956,2
8957,2
8958,2
8959,2
8960,2
8961,2
8962,2
8963,2
8964,2
8965,19
8966,14
8967,19
8968,19
8969,19
8970,19
8971,19
8972,2
8973,2
8974,2
8975,2
8976,2
8977,2
8978,13
8979,2
8980,19
8981,19
8982,2
8983,2
8984,2
8985,19
8986,19
8987,2
8988,2
8989,2
8990,2
8991,2
8992,2
8993,2
8994,27
8995,10
8996,2
8997,2
8998,1
8999,2
9000,2
9001,2
9002,2
9003,2
9004,2
9005,2
9006,10
9007,10
9008,10
9009,2
9010,2
9011,10
9012,10
9013,17
9014,17
9015,17
9016,17
9017,17
9018,17
9019,17
9020,17
9021,3
9022,1
9023,1
9024,1
9025,1
9026,3
9027,3
9028,1
9029,1
9030,1
9031,2
9032,1
9033,2
9034,2
9035,2
9036,2
9037,2
9038,2
9039,2
9040,2
9041,2
9042,2
9043,2
9044,2
9045,2
9046,2
9047,2
9048,2
9049,2
9050,2
9051,2
9052,2
9053,2
9054,2
9055,2
9056,2
9057,2
9058,2
9059,2
9060,2
9061,19
9062,19
9063,2
9064,2
9065,2
9066,2
9067,2
9068,2
9069,2
9070,2
9071,1
9072,2
9073,2
9074,1
9075,1
9076,2
9077,1
9078,2
9079,2
9080,2
9081,1
9082,2
9083,10
9084,10
9085,10
9086,10
9087,10
9088,10
9089,10
9090,10
9091,10
9092,10
9093,2
9094,2
9095,10
9096,10
9097,46
9098,46
9099,45
9100,45
9101,45
9102,45
9103,45
9104,46
9105,47
9106,46
9107,46
9108,46
9109,46
9110,46
9111,45
9112,45
9113,46
9114,46
9115,3
9116,13
9117,17
9118,21
9119,3
9120,3
9121,3
9122,3
9123,17
9124,14
9125,13
9126,13
9127,3
9128,3
9129,3
9130,3
9131,3
9132,3
9133,3
9134,3
9135,3
9136,3
9137,3
9138,1
9139,1
9140,3
9141,3
9142,3
9143,3
9144,3
9145,3
9146,3
9147,3
9148,3
9149,3
9150,23
9151,21
9152,21
9153,3
9154,3
9155,3
9156,12
9157,45
9158,45
9159,3
9160,3
9161,20
9162,19
9163,19
9164,20
9165,19
9166,19
9167,19
9168,13
9169,13
9170,13
9171,13
9172,13
9173,19
9174,19
9175,14
9176,9
9177,14
9178,14
9179,14
9180,12
9181,17
9182,17
9183,19
9184,19
9185,19
9186,19
9187,15
9188,15
9189,3
9190,15
9191,15
9192,15
9193,15
9194,45
9195,38
9196,14
9197,19
9198,45
9199,3
9200,3
9201,3
9202,3
9203,3
9204,23
9205,23
9206,23
9207,3
9208,3
9209,3
9210,3
9211,3
9212,3
9213,3
9214,3
9215,3
9216,3
9217,3
9218,3
9219,3
9220,3
9221,3
9222,3
9223,23
9224,23
9225,3
9226,3
9227,3
9228,3
9229,3
9230,3
9231,3
9232,3
9233,3
9234,3
9235,3
9236,3
9237,3
9238,3
9239,3
9240,38
9241,37
9242,13
9243,13
9244,4
9245,5
9246,37
9247,24
9248,45
9249,3
9250,3
9251,3
9252,38
9253,20
9254,20
9255,19
9256,3
9257,3
9258,3
9259,3
9260,3
9261,3
9262,3
9263,3
9264,3
9265,3
9266,17
9267,17
9268,17
9269,17
9270,16
9271,3
9272,12
9273,17
9274,17
9275,3
9276,19
9277,19
9278,19
9279,19
9280,19
9281,19
9282,19
9283,46
9284,4
9285,26
9286,13
9287,1
9288,5
9289,4
9290,4
9291,4
9292,4
9293,5
9294,5
9295,4
9296,5
9297,5
9298,5
9299,5
9300,15
9301,15
9302,15
9303,5
9304,5
9305,5
9306,24
9307,13
9308,4
9309,13
9310,5
9311,4
9312,4
9313,13
9314,19
9315,19
9316,14
9317,13
9318,4
9319,5
9320,5
9321,5
9322,23
9323,5
9324,5
9325,5
9326,5
9327,5
9328,3
9329,3
9330,3
9331,3
9332,23
9333,1
9334,1
9335,1
9336,1
9337,23
9338,23
9339,21
9340,4
9341,21
9342,21
9343,21
9344,21
9345,19
9346,27
9347,10
9348,17
9349,10
9350,10
9351,17
9352,10
9353,10
9354,10
9355,10
9356,10
9357,10
9358,10
9359,17
9360,10
9361,3
9362,3
9363,3
9364,3
9365,3
9366,1
9367,7
9368,7
9369,16
9370,17
9371,17
9372,17
9373,4
9374,5
9375,5
9376,15
9377,5
9378,5
9379,5
9380,4
9381,33
9382,5
9383,4
9384,5
9385,15
9386,5
9387,4
9388,4
9389,4
9390,5
9391,4
9392,5
9393,15
9394,15
9395,15
9396,15
9397,15
9398,46
9399,46
9400,15
9401,15
9402,15
9403,15
9404,15
9405,15
9406,4
9407,4
9408,17
9409,17
9410,4
9411,5
9412,38
9413,21
9414,23
9415,3
9416,5
9417,46
9418,46
9419,5
9420,46
9421,23
9422,46
9423,23
9424,46
9425,45
9426,38
9427,23
9428,38
9429,23
9430,45
9431,1
9432,1
9433,1
9434,1
9435,1
9436,1
9437,1
9438,3
9439,2
9440,9
9441,9
9442,9
9443,12
9444,12
9445,13
9446,13
9447,5
9448,3
9449,5
9450,3
9451,3
9452,2
9453,2
9454,5
9455,5
9456,5
9457,5
9458,5
9459,5
9460,5
9461,8
9462,5
9463,5
9464,5
9465,5
9466,5
9467,5
9468,5
9469,5
9470,5
9471,5
9472,5
9473,5
9474,5
9475,5
9476,5
9477,5
9478,5
9479,5
9480,5
9481,5
9482,5
9483,5
9484,5
9485,5
9486,5
9487,5
9488,23
9489,25
9490,25
9491,3
9492,23
9493,3
9494,3
9495,3
9496,3
9497,3
9498,2
9499,3
9500,1
9501,1
9502,5
9503,5
9504,3
9505,3
9506,3
9507,1
9508,15
9509,1
9510,1
9511,1
9512,1
9513,1
9514,1
9515,2
9516,10
9517,10
9518,10
9519,10
9520,13
9521,47
9522,10
9523,10
9524,9
9525,25
9526,19
9527,3
9528,25
9529,25
9530,5
9531,5
9532,5
9533,18
9534,5
9535,5
9536,5
9537,5
9538,5
9539,5
9540,5
9541,5
9542,5
9543,5
9544,5
9545,5
9546,5
9547,5
9548,5
9549,5
9550,5
9551,5
9552,5
9553,5
9554,5
9555,5
9556,5
9557,5
9558,14
9559,5
9560,5
9561,5
9562,5
9563,5
9564,23
9565,23
9566,5
9567,5
9568,23
9569,3
9570,23
9571,23
9572,23
9573,23
9574,23
9575,23
9576,3
9577,1
9578,1
9579,1
9580,1
9581,1
9582,25
9583,3
9584,2
9585,2
9586,2
9587,1
9588,1
9589,1
9590,1
9591,1
9592,1
9593,1
9594,1
9595,3
9596,3
9597,3
9598,3
9599,10
9600,10
9601,10
9602,10
9603,10
9604,10
9605,17
9606,10
9607,17
9608,10
9609,10
9610,10
9611,10
9612,46
9613,46
9614,44
9615,8
9616,46
9617,46
9618,46
9619,47
9620,47
9621,47
9622,23
9623,47
9624,47
9625,47
9626,21
9627,21
9628,35
9629,47
9630,47
9631,47
9632,4
9633,4
9634,4
9635,47
9636,47
9637,47
9638,15
9639,47
9640,15
9641,4
9642,47
9643,47
9644,4
9645,47
9646,6
9647,45
9648,45
9649,4
9650,4
9651,5
9652,12
9653,12
9654,1
9655,46
9656,12
9657,10
9658,11
9659,10
9660,10
9661,10
9662,10
9663,10
9664,10
9665,10
9666,10
9667,10
9668,10
9669,10
9670,10
9671,10
9672,10
9673,10
9674,10
9675,10
9676,10
9677,10
9678,10
9679,17
9680,17
9681,10
9682,10
9683,17
9684,17
9685,17
9686,17
9687,17
9688,17
9689,17
9690,10
9691,2
9692,10
9693,48
9694,40
9695,33
9696,10
9697,46
9698,10
9699,10
9700,46
9701,48
9702,48
9703,48
9704,21
9705,13
9706,10
9707,21
9708,23
9709,23
9710,23
9711,13
9712,23
9713,23
9714,23
9715,21
9716,23
9717,23
9718,13
9719,23
9720,21
9721,21
9722,13
9723,13
9724,13
9725,13
9726,13
9727,13
9728,13
9729,23
9730,23
9731,5
9732,5
9733,5
9734,8
9735,9
9736,9
9737,9
9738,9
9739,9
9740,10
9741,9
9742,10
9743,11
9744,9
9745,9
9746,19
9747,19
9748,10
9749,4
9750,10
9751,6
9752,21
9753,17
9754,17
9755,17
9756,17
9757,12
9758,17
9759,12
9760,17
9761,17
9762,12
9763,12
9764,12
9765,12
9766,17
9767,17
9768,27
9769,27
9770,10
9771,27
9772,10
9773,10
9774,10
9775,8
9776,9
9777,9
9778,48
9779,36
9780,31
9781,31
9782,12
9783,7
9784,7
9785,7
9786,7
9787,7
9788,22
9789,7
9790,7
9791,22
9792,22
9793,5
9794,7
9795,7
9796,7
9797,22
9798,22
9799,7
9800,7
9801,7
9802,7
9803,7
9804,7
9805,7
9806,7
9807,7
9808,7
9809,22
9810,22
9811,22
9812,7
9813,7
9814,7
9815,7
9816,7
9817,7
9818,7
9819,7
9820,7
9821,7
9822,7
9823,7
9824,7
9825,7
9826,7
9827,7
9828,7
9829,7
9830,34
9831,7
9832,7
9833,7
9834,7
9835,34
9836,34
9837,12
9838,12
9839,12
9840,17
9841,6
9842,3
9843,3
9844,3
9845,3
9846,3
9847,3
9848,5
9849,3
9850,3
9851,5
9852,3
9853,3
9854,3
9855,3
9856,3
9857,3
9858,1
9859,1
9860,8
9861,36
9862,7
9863,12
9864,17
9865,7
9866,30
9867,7
9868,7
9869,39
9870,31
9871,7
9872,7
9873,7
9874,7
9875,7
9876,7
9877,7
9878,7
9879,7
9880,7
9881,7
9882,22
9883,7
9884,7
9885,7
9886,7
9887,7
9888,7
9889,7
9890,7
9891,7
9892,7
9893,7
9894,7
9895,7
9896,7
9897,7
9898,7
9899,7
9900,7
9901,7
9902,7
9903,7
9904,7
9905,7
9906,7
9907,7
9908,7
9909,7
9910,7
9911,7
9912,7
9913,7
9914,7
9915,7
9916,7
9917,7
9918,7
9919,7
9920,38
9921,7
9922,7
9923,10
9924,12
9925,7
9926,12
9927,12
9928,12
9929,12
9930,45
9931,3
9932,5
9933,38
9934,38
9935,38
9936,21
9937,17
9938,17
9939,17
9940,17
9941,17
9942,17
9943,17
9944,17
9945,10
9946,10
9947,11
9948,10
9949,8
9950,11
9951,11
9952,11
9953,11
9954,11
9955,11
9956,8
9957,8
9958,8
9959,8
9960,8
9961,46
9962,8
9963,8
9964,8
9965,8
9966,8
9967,10
9968,10
9969,8
9970,10
9971,11
9972,8
9973,8
9974,8
9975,8
9976,8
9977,8
9978,11
9979,11
9980,8
9981,8
9982,8
9983,8
9984,8
9985,8
9986,12
9987,11
9988,10
9989,10
9990,8
9991,10
9992,8
9993,8
9994,8
9995,8
9996,8
9997,8
9998,8
9999,8
10000,8
10001,38
10002,46
10003,11
10004,8
10005,10
10006,8
10007,8
10008,10
10009,19
10010,5
10011,9
10012,19
10013,9
10014,9
10015,8
10016,9
10017,5
10018,5
10019,5
10020,17
10021,17
10022,17
10023,17
10024,17
10025,17
10026,17
10027,17
10028,17
10029,17
10030,17
10031,17
10032,17
10033,17
10034,17
10035,10
10036,46
10037,46
10038,46
10039,10
10040,10
10041,46
10042,8
10043,46
10044,46
10045,46
10046,46
10047,46
10048,46
10049,46
10050,46
10051,46
10052,46
10053,8
10054,8
10055,8
10056,8
10057,8
10058,8
10059,8
10060,8
10061,8
10062,30
10063,30
10064,12
10065,12
10066,12
10067,12
10068,12
10069,34
10070,12
10071,12
10072,8
10073,8
10074,8
10075,8
10076,8
10077,12
10078,10
10079,10
10080,10
10081,12
10082,8
10083,12
10084,8
10085,8
10086,8
10087,12
10088,38
10089,8
10090,8
10091,8
10092,39
10093,12
10094,8
10095,12
10096,8
10097,8
10098,38
10099,38
10100,38
10101,38
10102,38
10103,38
10104,10
10105,10
10106,17
10107,10
10108,10
10109,10
10110,10
10111,10
10112,17
10113,10
10114,10
10115,10
10116,10
10117,10
10118,10
10119,10
10120,11
10121,11
10122,11
10123,11
10124,11
10125,8
10126,10
10127,10
10128,11
10129,11
10130,10
10131,10
10132,10
10133,10
10134,9
10135,9
10136,9
10137,9
10138,9
10139,9
10140,9
10141,9
10142,9
10143,9
10144,9
10145,9
10146,9
10147,9
10148,9
10149,9
10150,9
10151,9
10152,9
10153,9
10154,9
10155,9
10156,9
10157,9
10158,9
10159,9
10160,9
10161,9
10162,9
10163,9
10164,9
10165,9
10166,9
10167,9
10168,9
10169,9
10170,9
10171,9
10172,9
10173,9
10174,9
10175,9
10176,9
10177,9
10178,9
10179,9
10180,9
10181,9
10182,9
10183,9
10184,8
10185,8
10186,8
10187,12
10188,12
10189,1
10190,12
10191,1
10192,1
10193,4
10194,12
10195,9
10196,12
10197,1
10198,12
10199,12
10200,1
10201,1
10202,12
10203,1
10204,9
10205,9
10206,9
10207,10
10208,9
10209,10
10210,10
10211,11
10212,11
10213,10
10214,9
10215,9
10216,9
10217,9
10218,9
10219,9
10220,9
10221,9
10222,9
10223,9
10224,9
10225,12
10226,34
10227,12
10228,9
10229,9
10230,9
10231,9
10232,9
10233,9
10234,9
10235,9
10236,9
10237,9
10238,9
10239,9
10240,9
10241,9
10242,9
10243,9
10244,9
10245,9
10246,9
10247,9
10248,9
10249,9
10250,9
10251,9
10252,9
10253,9
10254,9
10255,10
10256,10
10257,10
10258,10
10259,9
10260,9
10261,9
10262,9
10263,10
10264,19
10265,9
10266,9
10267,9
10268,9
10269,9
10270,10
10271,10
10272,10
10273,10
10274,10
10275,10
10276,10
10277,17
10278,17
10279,27
10280,15
10281,9
10282,11
10283,11
10284,10
10285,10
10286,9
10287,10
10288,10
10289,11
10290,11
10291,11
10292,11
10293,33
10294,10
10295,10
10296,10
10297,10
10298,10
10299,10
10300,11
10301,10
10302,15
10303,15
10304,11
10305,11
10306,13
10307,11
10308,11
10309,10
10310,10
10311,10
10312,11
10313,10
10314,8
10315,13
10316,10
10317,10
10318,11
10319,11
10320,11
10321,2
10322,13
10323,13
10324,9
10325,11
10326,12
10327,10
10328,10
10329,10
10330,10
10331,17
10332,10
10333,17
10334,17
10335,17
10336,17
10337,17
10338,17
10339,17
10340,17
10341,17
10342,17
10343,17
10344,17
10345,17
10346,21
10347,17
10348,21
10349,17
10350,17
10351,17
10352,21
10353,17
10354,17
10355,17
10356,17
10357,17
10358,10
10359,10
10360,10
10361,10
10362,10
10363,8
10364,12
10365,8
10366,10
10367,9
10368,11
10369,10
10370,10
10371,10
10372,9
10373,9
10374,6
10375,46
10376,33
10377,46
10378,11
10379,10
10380,10
10381,13
10382,33
10383,14
10384,14
10385,14
10386,14
10387,40
10388,40
10389,40
10390,40
10391,40
10392,33
10393,33
10394,8
10395,8
10396,8
10397,8
10398,6
10399,6
10400,2
10401,2
10402,3
10403,3
10404,3
10405,2
10406,10
10407,10
10408,10
10409,11
10410,9
10411,8
10412,10
10413,10
10414,27
10415,27
10416,27
10417,27
10418,27
10419,27
10420,27
10421,27
10422,27
10423,27
10424,10
10425,10
10426,10
10427,17
10428,27
10429,17
10430,17
10431,27
10432,17
10433,17
10434,17
10435,27
10436,47
10437,27
10438,21
10439,21
10440,27
10441,27
10442,11
10443,11
10444,11
10445,10
10446,11
10447,11
10448,11
10449,11
10450,11
10451,10
10452,10
10453,10
10454,13
10455,11
10456,10
10457,10
10458,11
10459,10
10460,11
10461,11
10462,11
10463,9
10464,9
10465,9
10466,11
10467,9
10468,11
10469,9
10470,9
10471,9
10472,9
10473,9
10474,9
10475,12
10476,12
10477,11
10478,11
10479,12
10480,12
10481,12
10482,12
10483,11
10484,11
10485,12
10486,13
10487,12
10488,10
10489,11
10490,8
10491,10
10492,10
10493,10
10494,10
10495,10
10496,11
10497,10
10498,11
10499,11
10500,11
10501,11
10502,11
10503,11
10504,11
10505,11
10506,11
10507,8
10508,10
10509,11
10510,11
10511,10
10512,11
10513,10
10514,10
10515,10
10516,10
10517,11
10518,11
10519,10
10520,27
10521,17
10522,27
10523,27
10524,21
10525,21
10526,27
10527,21
10528,10
10529,47
10530,11
10531,8
10532,11
10533,11
10534,11
10535,11
10536,11
10537,11
10538,10
10539,11
10540,11
10541,10
10542,10
10543,11
10544,10
10545,10
10546,10
10547,10
10548,10
10549,10
10550,10
10551,10
10552,11
10553,11
10554,11
10555,11
10556,11
10557,11
10558,11
10559,46
10560,46
10561,46
10562,46
10563,9
10564,9
10565,9
10566,9
10567,9
10568,9
10569,11
10570,9
10571,9
10572,9
10573,10
10574,10
10575,10
10576,10
10577,9
10578,9
10579,9
10580,9
10581,9
10582,9
10583,9
10584,9
10585,11
10586,11
10587,11
10588,11
10589,11
10590,11
10591,10
10592,38
10593,10
10594,10
10595,10
10596,17
10597,17
10598,17
10599,17
10600,17
10601,17
10602,17
10603,27
10604,17
10605,17
10606,17
10607,17
10608,17
10609,17
10610,27
10611,27
10612,27
10613,27
10614,27
10615,27
10616,38
10617,45
10618,12
10619,12
10620,12
10621,12
10622,12
10623,38
10624,7
10625,12
10626,12
10627,12
10628,12
10629,12
10630,12
10631,12
10632,12
10633,12
10634,12
10635,12
10636,12
10637,12
10638,12
10639,12
10640,12
10641,12
10642,12
10643,12
10644,12
10645,12
10646,12
10647,12
10648,12
10649,12
10650,12
10651,12
10652,12
10653,12
10654,12
10655,12
10656,12
10657,19
10658,47
10659,23
10660,23
10661,38
10662,9
10663,5
10664,5
10665,5
10666,6
10667,27
10668,17
10669,27
10670,17
10671,27
10672,17
10673,17
10674,17
10675,17
10676,17
10677,17
10678,17
10679,17
10680,17
10681,17
10682,17
10683,17
10684,27
10685,10
10686,10
10687,17
10688,17
10689,17
10690,17
10691,17
10692,17
10693,10
10694,17
10695,20
10696,27
10697,10
10698,38
10699,38
10700,38
10701,10
10702,10
10703,10
10704,10
10705,38
10706,38
10707,29
10708,38
10709,12
10710,12
10711,12
10712,12
10713,12
10714,12
10715,12
10716,12
10717,12
10718,12
10719,12
10720,12
10721,12
10722,12
10723,12
10724,12
10725,12
10726,12
10727,12
10728,12
10729,12
10730,12
10731,12
10732,12
10733,12
10734,12
10735,12
10736,12
10737,12
10738,12
10739,12
10740,12
10741,38
10742,27
10743,13
10744,13
10745,13
10746,13
10747,10
10748,27
10749,20
10750,10
10751,10
10752,10
10753,10
10754,10
10755,17
10756,27
10757,17
10758,17
10759,17
10760,17
10761,17
10762,17
10763,17
10764,17
10765,17
10766,17
10767,17
10768,17
10769,17
10770,17
10771,17
10772,17
10773,17
10774,17
10775,17
10776,17
10777,17
10778,17
10779,17
10780,3
10781,19
10782,19
10783,19
10784,1
10785,1
10786,3
10787,13
10788,19
10789,19
10790,13
10791,33
10792,33
10793,33
10794,25
10795,25
10796,25
10797,33
10798,33
10799,13
10800,13
10801,13
10802,13
10803,14
10804,14
10805,13
10806,13
10807,13
10808,13
10809,13
10810,13
10811,13
10812,13
10813,13
10814,13
10815,13
10816,13
10817,13
10818,13
10819,13
10820,13
10821,13
10822,13
10823,13
10824,13
10825,13
10826,13
10827,13
10828,13
10829,13
10830,13
10831,13
10832,13
10833,13
10834,13
10835,13
10836,13
10837,13
10838,13
10839,13
10840,13
10841,13
10842,14
10843,13
10844,3
10845,14
10846,12
10847,3
10848,8
10849,8
10850,14
10851,19
10852,27
10853,10
10854,10
10855,27
10856,27
10857,17
10858,17
10859,17
10860,17
10861,10
10862,19
10863,3
10864,3
10865,1
10866,19
10867,14
10868,13
10869,1
10870,1
10871,13
10872,13
10873,13
10874,19
10875,19
10876,19
10877,2
10878,13
10879,14
10880,13
10881,13
10882,13
10883,13
10884,13
10885,13
10886,13
10887,16
10888,13
10889,13
10890,18
10891,18
10892,18
10893,18
10894,18
10895,18
10896,13
10897,13
10898,13
10899,15
10900,15
10901,4
10902,14
10903,14
10904,14
10905,14
10906,14
10907,13
10908,13
10909,13
10910,13
10911,14
10912,14
10913,14
10914,14
10915,14
10916,14
10917,13
10918,20
10919,13
10920,19
10921,13
10922,19
10923,19
10924,14
10925,14
10926,14
10927,14
10928,13
10929,19
10930,13
10931,14
10932,3
10933,3
10934,13
10935,13
10936,3
10937,14
10938,14
10939,3
10940,8
10941,2
10942,2
10943,2
10944,3
10945,3
10946,2
10947,3
10948,3
10949,14
10950,14
10951,3
10952,25
10953,25
10954,25
10955,16
10956,12
10957,12
10958,12
10959,14
10960,14
10961,12
10962,12
10963,19
10964,14
10965,14
10966,14
10967,14
10968,14
10969,14
10970,14
10971,14
10972,14
10973,14
10974,14
10975,14
10976,14
10977,14
10978,14
10979,14
10980,14
10981,14
10982,14
10983,14
10984,14
10985,14
10986,14
10987,14
10988,14
10989,14
10990,14
10991,14
10992,14
10993,14
10994,14
10995,14
10996,14
10997,14
10998,14
10999,12
11000,12
11001,12
11002,19
11003,19
11004,14
11005,13
11006,36
11007,36
11008,40
11009,33
11010,14
11011,14
11012,14
11013,45
11014,11
11015,11
11016,11
11017,11
11018,12
11019,12
11020,3
11021,14
11022,12
11023,10
11024,3
11025,13
11026,21
11027,19
11028,19
11029,19
11030,13
11031,11
11032,11
11033,10
11034,19
11035,20
11036,5
11037,38
11038,14
11039,14
11040,14
11041,12
11042,14
11043,12
11044,42
11045,14
11046,14
11047,14
11048,14
11049,14
11050,14
11051,14
11052,14
11053,14
11054,14
11055,14
11056,14
11057,14
11058,14
11059,14
11060,14
11061,14
11062,14
11063,14
11064,14
11065,14
11066,14
11067,14
11068,14
11069,14
11070,14
11071,41
11072,14
11073,14
11074,14
11075,14
11076,14
11077,14
11078,14
11079,14
11080,14
11081,14
11082,41
11083,3
11084,14
11085,14
11086,14
11087,14
11088,14
11089,14
11090,50
11091,33
11092,42
11093,33
11094,3
11095,3
11096,3
11097,3
11098,3
11099,14
11100,14
11101,2
11102,19
11103,3
11104,3
11105,19
11106,3
11107,19
11108,19
11109,12
11110,46
11111,46
11112,46
11113,10
11114,11
11115,10
11116,13
11117,13
11118,18
11119,15
11120,15
11121,15
11122,15
11123,46
11124,15
11125,15
11126,15
11127,15
11128,15
11129,15
11130,15
11131,15
11132,15
11133,15
11134,15
11135,15
11136,15
11137,4
11138,5
11139,5
11140,5
11141,5
11142,5
11143,21
11144,15
11145,4
11146,15
11147,15
11148,15
11149,15
11150,4
11151,21
11152,23
11153,4
11154,5
11155,4
11156,15
11157,15
11158,9
11159,5
11160,4
11161,46
11162,46
11163,5
11164,5
11165,8
11166,8
11167,46
11168,46
11169,46
11170,46
11171,11
11172,10
11173,10
11174,36
11175,10
11176,10
11177,27
11178,27
11179,10
11180,10
11181,10
11182,10
11183,10
11184,17
11185,17
11186,10
11187,10
11188,17
11189,17
11190,17
11191,17
11192,17
11193,17
11194,17
11195,17
11196,17
11197,17
11198,17
11199,17
11200,10
11201,10
11202,21
11203,13
11204,15
11205,20
11206,4
11207,14
11208,18
11209,15
11210,15
11211,15
11212,15
11213,15
11214,15
11215,15
11216,15
11217,15
11218,15
11219,15
11220,15
11221,15
11222,15
11223,15
11224,15
11225,15
11226,15
11227,15
11228,15
11229,15
11230,15
11231,15
11232,15
11233,15
11234,15
11235,15
11236,15
11237,15
11238,15
11239,4
11240,4
11241,15
11242,4
11243,15
11244,15
11245,15
11246,4
11247,47
11248,23
11249,4
11250,4
11251,4
11252,5
11253,5
11254,23
11255,21
11256,21
11257,21
11258,46
11259,46
11260,11
11261,10
11262,3
11263,45
11264,15
11265,45
11266,45
11267,45
11268,46
11269,46
11270,9
11271,46
11272,46
11273,46
11274,12
11275,10
11276,10
11277,10
11278,10
11279,10
11280,10
11281,27
11282,10
11283,10
11284,10
11285,10
11286,10
11287,10
11288,10
11289,17
11290,17
11291,38
11292,46
11293,46
11294,11
11295,21
11296,3
11297,2
11298,16
11299,16
11300,17
11301,17
11302,17
11303,17
11304,17
11305,17
11306,17
11307,21
11308,21
11309,16
11310,7
11311,7
11312,16
11313,16
11314,16
11315,16
11316,7
11317,17
11318,12
11319,16
11320,16
11321,16
11322,22
11323,16
11324,16
11325,16
11326,16
11327,16
11328,16
11329,16
11330,16
11331,16
11332,16
11333,16
11334,17
11335,17
11336,22
11337,22
11338,17
11339,22
11340,39
11341,17
11342,17
11343,8
11344,8
11345,8
11346,8
11347,8
11348,12
11349,8
11350,38
11351,31
11352,30
11353,27
11354,32
11355,34
11356,34
11357,38
11358,38
11359,10
11360,27
11361,10
11362,27
11363,27
11364,38
11365,27
11366,27
11367,27
11368,17
11369,9
11370,15
11371,1
11372,3
11373,17
11374,17
11375,17
11376,17
11377,17
11378,23
11379,17
11380,17
11381,20
11382,17
11383,23
11384,23
11385,17
11386,21
11387,21
11388,17
11389,17
11390,16
11391,16
11392,16
11393,16
11394,16
11395,16
11396,16
11397,17
11398,17
11399,16
11400,17
11401,16
11402,16
11403,16
11404,16
11405,16
11406,16
11407,16
11408,16
11409,17
11410,17
11411,17
11412,17
11413,17
11414,17
11415,17
11416,17
11417,17
11418,21
11419,21
11420,21
11421,16
11422,16
11423,16
11424,22
11425,22
11426,25
11427,39
11428,39
11429,45
11430,3
11431,45
11432,8
11433,36
11434,38
11435,40
11436,10
11437,10
11438,38
11439,38
11440,38
11441,38
11442,27
11443,32
11444,38
11445,17
11446,17
11447,10
11448,17
11449,17
11450,27
11451,17
11452,17
11453,17
11454,17
11455,17
11456,17
11457,10
11458,1
11459,19
11460,3
11461,17
11462,16
11463,17
11464,13
11465,16
11466,17
11467,17
11468,17
11469,17
11470,17
11471,17
11472,17
11473,17
11474,23
11475,23
11476,17
11477,17
11478,17
11479,17
11480,17
11481,17
11482,17
11483,17
11484,17
11485,17
11486,20
11487,17
11488,23
11489,13
11490,13
11491,20
11492,17
11493,21
11494,23
11495,23
11496,23
11497,41
11498,16
11499,10
11500,10
11501,10
11502,10
11503,8
11504,8
11505,8
11506,38
11507,10
11508,38
11509,11
11510,11
11511,11
11512,11
11513,38
11514,10
11515,10
11516,10
11517,27
11518,10
11519,10
11520,10
11521,17
11522,17
11523,27
11524,10
11525,27
11526,17
11527,27
11528,10
11529,38
11530,21
11531,21
11532,17
11533,17
11534,17
11535,17
11536,17
11537,17
11538,17
11539,21
11540,19
11541,3
11542,3
11543,3
11544,3
11545,1
11546,1
11547,13
11548,13
11549,21
11550,21
11551,21
11552,17
11553,17
11554,17
11555,17
11556,17
11557,17
11558,17
11559,17
11560,17
11561,17
11562,17
11563,15
11564,15
11565,17
11566,17
11567,17
11568,17
11569,17
11570,17
11571,15
11572,17
11573,17
11574,17
11575,17
11576,17
11577,17
11578,17
11579,20
11580,14
11581,33
11582,13
11583,20
11584,17
11585,17
11586,17
11587,17
11588,17
11589,21
11590,21
11591,21
11592,20
11593,12
11594,12
11595,12
11596,38
11597,38
11598,36
11599,31
11600,30
11601,27
11602,27
11603,10
11604,10
11605,10
11606,10
11607,10
11608,10
11609,10
11610,10
11611,27
11612,10
11613,31
11614,31
11615,31
11616,34
11617,47
11618,32
11619,30
11620,32
11621,32
11622,27
11623,10
11624,8
11625,2
11626,19
11627,19
11628,23
11629,13
11630,2
11631,1
11632,1
11633,1
11634,2
11635,18
11636,18
11637,18
11638,18
11639,18
11640,18
11641,18
11642,18
11643,18
11644,18
11645,18
11646,18
11647,18
11648,18
11649,18
11650,18
11651,18
11652,18
11653,18
11654,18
11655,18
11656,18
11657,18
11658,18
11659,18
11660,18
11661,18
11662,18
11663,18
11664,37
11665,37
11666,41
11667,41
11668,50
11669,37
11670,38
11671,36
11672,36
11673,10
11674,13
11675,13
11676,13
11677,13
11678,13
11679,13
11680,13
11681,13
11682,13
11683,18
11684,13
11685,13
11686,18
11687,37
11688,37
11689,36
11690,37
11691,37
11692,37
11693,37
11694,37
11695,36
11696,36
11697,1
11698,21
11699,10
11700,1
11701,1
11702,1
11703,1
11704,2
11705,3
11706,5
11707,17
11708,17
11709,20
11710,20
11711,17
11712,33
11713,19
11714,13
11715,33
11716,33
11717,33
11718,13
11719,33
11720,25
11721,23
11722,37
11723,18
11724,18
11725,18
11726,18
11727,18
11728,18
11729,18
11730,18
11731,18
11732,18
11733,18
11734,18
11735,18
11736,18
11737,18
11738,18
11739,18
11740,18
11741,18
11742,18
11743,18
11744,18
11745,18
11746,18
11747,37
11748,37
11749,37
11750,50
11751,50
11752,50
11753,50
11754,50
11755,50
11756,50
11757,37
11758,37
11759,37
11760,37
11761,37
11762,32
11763,32
11764,38
11765,21
11766,18
11767,8
11768,1
11769,1
11770,36
11771,36
11772,18
11773,18
11774,36
11775,31
11776,36
11777,37
11778,38
11779,38
11780,38
11781,17
11782,17
11783,17
11784,17
11785,17
11786,17
11787,27
11788,17
11789,10
11790,48
11791,5
11792,1
11793,1
11794,3
11795,3
11796,3
11797,3
11798,3
11799,40
11800,39
11801,39
11802,19
11803,19
11804,19
11805,19
11806,19
11807,19
11808,19
11809,37
11810,37
11811,37
11812,37
11813,37
11814,37
11815,37
11816,37
11817,30
11818,30
11819,37
11820,37
11821,37
11822,37
11823,37
11824,37
11825,30
11826,30
11827,19
11828,19
11829,19
11830,19
11831,19
11832,19
11833,19
11834,19
11835,37
11836,37
11837,37
11838,37
11839,27
11840,27
11841,11
11842,19
11843,19
11844,46
11845,13
11846,13
11847,19
11848,19
11849,12
11850,12
11851,12
11852,12
11853,19
11854,11
11855,13
11856,27
11857,37
11858,27
11859,19
11860,8
11861,8
11862,11
11863,11
11864,19
11865,19
11866,19
11867,19
11868,19
11869,19
11870,19
11871,19
11872,14
11873,3
11874,10
11875,19
11876,19
11877,19
11878,19
11879,19
11880,19
11881,19
11882,19
11883,19
11884,19
11885,19
11886,19
11887,19
11888,19
11889,19
11890,19
11891,19
11892,19
11893,19
11894,19
11895,19
11896,19
11897,19
11898,19
11899,19
11900,19
11901,19
11902,19
11903,19
11904,19
11905,19
11906,19
11907,19
11908,19
11909,19
11910,19
11911,19
11912,19
11913,19
11914,19
11915,19
11916,19
11917,19
11918,19
11919,19
11920,19
11921,19
11922,19
11923,19
11924,19
11925,19
11926,19
11927,19
11928,19
11929,13
11930,13
11931,14
11932,14
11933,14
11934,14
11935,13
11936,14
11937,13
11938,1
11939,13
11940,19
11941,19
11942,19
11943,19
11944,19
11945,19
11946,19
11947,19
11948,19
11949,17
11950,17
11951,17
11952,21
11953,17
11954,17
11955,17
11956,17
11957,17
11958,17
11959,17
11960,17
11961,17
11962,3
11963,3
11964,3
11965,3
11966,17
11967,17
11968,3
11969,3
11970,20
11971,20
11972,20
11973,25
11974,20
11975,17
11976,17
11977,17
11978,20
11979,17
11980,17
11981,20
11982,17
11983,17
11984,17
11985,17
11986,20
11987,17
11988,17
11989,17
11990,17
11991,17
11992,17
11993,17
11994,17
11995,17
11996,20
11997,20
11998,20
11999,20
12000,1
12001,1
12002,1
12003,1
12004,1
12005,19
12006,19
12007,3
12008,19
12009,19
12010,19
12011,19
12012,19
12013,13
12014,13
12015,13
12016,13
12017,13
12018,21
12019,27
12020,27
12021,27
12022,27
12023,17
12024,17
12025,17
12026,17
12027,17
12028,17
12029,17
12030,17
12031,17
12032,17
12033,17
12034,17
12035,17
12036,17
12037,17
12038,17
12039,17
12040,17
12041,17
12042,17
12043,10
12044,10
12045,10
12046,10
12047,27
12048,10
12049,10
12050,17
12051,36
12052,5
12053,25
12054,37
12055,20
12056,20
12057,17
12058,4
12059,4
12060,15
12061,15
12062,15
12063,15
12064,4
12065,4
12066,4
12067,15
12068,20
12069,20
12070,20
12071,20
12072,20
12073,20
12074,20
12075,20
12076,20
12077,20
12078,20
12079,20
12080,20
12081,20
12082,20
12083,20
12084,20
12085,45
12086,45
12087,45
12088,20
12089,20
12090,20
12091,20
12092,3
12093,19
12094,19
12095,19
12096,19
12097,19
12098,19
12099,19
12100,19
12101,13
12102,13
12103,21
12104,21
12105,27
12106,17
12107,17
12108,17
12109,17
12110,17
12111,17
12112,17
12113,17
12114,17
12115,17
12116,17
12117,17
12118,17
12119,17
12120,17
12121,17
12122,21
12123,21
12124,21
12125,10
12126,10
12127,10
12128,10
12129,50
12130,25
12131,21
12132,21
12133,21
12134,21
12135,21
12136,21
12137,21
12138,21
12139,21
12140,21
12141,21
12142,21
12143,21
12144,23
12145,23
12146,23
12147,23
12148,23
12149,23
12150,21
12151,21
12152,21
12153,21
12154,21
12155,21
12156,21
12157,23
12158,23
12159,23
12160,23
12161,21
12162,21
12163,28
12164,51
12165,28
12166,50
12167,50
12168,50
12169,50
12170,50
12171,50
12172,50
12173,50
12174,50
12175,50
12176,50
12177,50
12178,37
12179,50
12180,50
12181,39
12182,27
12183,27
12184,20
12185,10
12186,10
12187,40
12188,38
12189,38
12190,38
12191,38
12192,38
12193,27
12194,38
12195,47
12196,47
12197,37
12198,47
12199,30
12200,47
12201,17
12202,27
12203,17
12204,17
12205,17
12206,27
12207,27
12208,10
12209,1
12210,45
12211,25
12212,25
12213,28
12214,25
12215,21
12216,21
12217,21
12218,21
12219,21
12220,21
12221,21
12222,21
12223,21
12224,21
12225,21
12226,21
12227,21
12228,21
12229,21
12230,21
12231,21
12232,21
12233,21
12234,21
12235,21
12236,23
12237,23
12238,23
12239,23
12240,23
12241,23
12242,23
12243,21
12244,21
12245,23
12246,23
12247,23
12248,23
12249,23
12250,23
12251,23
12252,25
12253,25
12254,25
12255,45
12256,23
12257,45
12258,45
12259,45
12260,45
12261,45
12262,45
12263,45
12264,45
12265,10
12266,15
12267,9
12268,9
12269,9
12270,11
12271,10
12272,12
12273,12
12274,12
12275,38
12276,38
12277,38
12278,38
12279,38
12280,47
12281,47
12282,47
12283,47
12284,38
12285,17
12286,17
12287,17
12288,17
12289,17
12290,17
12291,17
12292,17
12293,21
12294,48
12295,50
12296,25
12297,21
12298,21
12299,21
12300,23
12301,23
12302,17
12303,23
12304,21
12305,21
12306,21
12307,21
12308,21
12309,21
12310,21
12311,21
12312,21
12313,50
12314,50
12315,50
12316,50
12317,50
12318,50
12319,50
12320,50
12321,50
12322,50
12323,50
12324,50
12325,50
12326,22
12327,29
12328,24
12329,23
12330,23
12331,23
12332,17
12333,17
12334,22
12335,17
12336,17
12337,17
12338,17
12339,4
12340,23
12341,21
12342,17
12343,17
12344,12
12345,38
12346,14
12347,43
12348,12
12349,10
12350,6
12351,6
12352,8
12353,12
12354,12
12355,42
12356,42
12357,42
12358,42
12359,38
12360,38
12361,44
12362,45
12363,36
12364,17
12365,17
12366,6
12367,8
12368,17
12369,10
12370,10
12371,10
12372,10
12373,10
12374,10
12375,46
12376,36
12377,37
12378,45
12379,45
12380,25
12381,21
12382,17
12383,20
12384,23
12385,23
12386,21
12387,21
12388,21
12389,50
12390,21
12391,21
12392,21
12393,21
12394,21
12395,21
12396,21
12397,3
12398,22
12399,22
12400,7
12401,7
12402,22
12403,22
12404,21
12405,50
12406,50
12407,22
12408,22
12409,7
12410,22
12411,25
12412,22
12413,22
12414,5
12415,5
12416,5
12417,5
12418,5
12419,5
12420,5
12421,17
12422,17
12423,17
12424,17
12425,17
12426,17
12427,17
12428,17
12429,50
12430,50
12431,10
12432,10
12433,6
12434,6
12435,3
12436,2
12437,9
12438,9
12439,8
12440,8
12441,8
12442,8
12443,8
12444,8
12445,8
12446,8
12447,38
12448,38
12449,45
12450,36
12451,17
12452,17
12453,17
12454,17
12455,21
12456,17
12457,17
12458,17
12459,21
12460,1
12461,23
12462,23
12463,25
12464,21
12465,21
12466,23
12467,21
12468,23
12469,23
12470,23
12471,23
12472,21
12473,21
12474,21
12475,21
12476,21
12477,23
12478,21
12479,21
12480,23
12481,13
12482,23
12483,23
12484,23
12485,13
12486,13
12487,33
12488,13
12489,13
12490,51
12491,23
12492,23
12493,39
12494,39
12495,39
12496,39
12497,39
12498,39
12499,39
12500,39
12501,39
12502,39
12503,39
12504,13
12505,13
12506,40
12507,50
12508,30
12509,25
12510,37
12511,21
12512,50
12513,50
12514,29
12515,29
12516,28
12517,28
12518,28
12519,28
12520,25
12521,25
12522,23
12523,23
12524,23
12525,23
12526,25
12527,23
12528,23
12529,23
12530,23
12531,3
12532,23
12533,3
12534,17
12535,17
12536,21
12537,17
12538,17
12539,21
12540,45
12541,25
12542,21
12543,23
12544,23
12545,23
12546,23
12547,23
12548,21
12549,23
12550,23
12551,21
12552,21
12553,21
12554,1
12555,23
12556,1
12557,1
12558,23
12559,23
12560,1
12561,1
12562,23
12563,23
12564,1
12565,23
12566,23
12567,2
12568,16
12569,33
12570,51
12571,21
12572,21
12573,21
12574,23
12575,23
12576,23
12577,23
12578,21
12579,23
12580,23
12581,50
12582,21
12583,48
12584,46
12585,48
12586,46
12587,46
12588,47
12589,47
12590,23
12591,23
12592,23
12593,25
12594,25
12595,25
12596,23
12597,23
12598,23
12599,23
12600,23
12601,23
12602,23
12603,38
12604,25
12605,20
12606,10
12607,10
12608,10
12609,10
12610,20
12611,20
12612,20
12613,20
12614,19
12615,19
12616,4
12617,4
12618,21
12619,21
12620,21
12621,21
12622,21
12623,50
12624,50
12625,25
12626,25
12627,25
12628,25
12629,25
12630,20
12631,20
12632,20
12633,24
12634,24
12635,22
12636,25
12637,21
12638,23
12639,21
12640,23
12641,23
12642,28
12643,28
12644,28
12645,28
12646,25
12647,28
12648,28
12649,28
12650,28
12651,25
12652,25
12653,25
12654,25
12655,28
12656,28
12657,28
12658,50
12659,50
12660,28
12661,50
12662,25
12663,25
12664,25
12665,25
12666,24
12667,25
12668,28
12669,28
12670,28
12671,28
12672,28
12673,37
12674,28
12675,28
12676,28
12677,28
12678,50
12679,45
12680,47
12681,10
12682,27
12683,10
12684,11
12685,10
12686,27
12687,27
12688,11
12689,21
12690,13
12691,13
12692,13
12693,13
12694,13
12695,21
12696,27
12697,21
12698,21
12699,27
12700,10
12701,17
12702,17
12703,10
12704,10
12705,10
12706,10
12707,17
12708,10
12709,50
12710,50
12711,45
12712,25
12713,25
12714,25
12715,25
12716,20
12717,20
12718,25
12719,25
12720,25
12721,20
12722,24
12723,24
12724,24
12725,25
12726,25
12727,24
12728,24
12729,28
12730,24
12731,24
12732,25
12733,25
12734,24
12735,24
12736,24
12737,24
12738,24
12739,24
12740,50
12741,25
12742,25
12743,25
12744,28
12745,28
12746,28
12747,24
12748,25
12749,25
12750,25
12751,25
12752,25
12753,25
12754,25
12755,25
12756,25
12757,25
12758,45
12759,45
12760,12
12761,13
12762,19
12763,19
12764,19
12765,10
12766,19
12767,19
12768,13
12769,13
12770,13
12771,19
12772,19
12773,13
12774,13
12775,13
12776,13
12777,27
12778,17
12779,17
12780,17
12781,21
12782,17
12783,17
12784,17
12785,10
12786,10
12787,10
12788,10
12789,10
12790,10
12791,23
12792,23
12793,10
12794,10
12795,10
12796,10
12797,10
12798,25
12799,25
12800,25
12801,25
12802,25
12803,25
12804,25
12805,25
12806,25
12807,22
12808,25
12809,23
12810,21
12811,25
12812,50
12813,25
12814,25
12815,25
12816,25
12817,25
12818,25
12819,25
12820,25
12821,25
12822,25
12823,25
12824,25
12825,25
12826,25
12827,25
12828,25
12829,25
12830,25
12831,25
12832,25
12833,25
12834,25
12835,25
12836,25
12837,25
12838,28
12839,25
12840,24
12841,24
12842,25
12843,24
12844,48
12845,50
12846,25
12847,25
12848,37
12849,25
12850,25
12851,24
12852,25
12853,1
12854,1
12855,19
12856,19
12857,11
12858,12
12859,12
12860,12
12861,12
12862,11
12863,11
12864,12
12865,19
12866,36
12867,38
12868,38
12869,37
12870,37
12871,17
12872,17
12873,17
12874,17
12875,17
12876,17
12877,17
12878,17
12879,17
12880,17
12881,48
12882,38
12883,10
12884,38
12885,10
12886,38
12887,26
12888,10
12889,10
12890,45
12891,45
12892,50
12893,50
12894,45
12895,50
12896,25
12897,37
12898,25
12899,25
12900,50
12901,50
12902,28
12903,50
12904,28
12905,28
12906,25
12907,28
12908,28
12909,28
12910,28
12911,28
12912,28
12913,28
12914,50
12915,50
12916,50
12917,50
12918,50
12919,25
12920,25
12921,25
12922,25
12923,25
12924,25
12925,24
12926,24
12927,37
12928,37
12929,29
12930,29
12931,27
12932,29
12933,25
12934,29
12935,24
12936,24
12937,13
12938,13
12939,14
12940,18
12941,20
12942,27
12943,13
12944,10
12945,10
12946,12
12947,10
12948,21
12949,27
12950,36
12951,38
12952,21
12953,21
12954,47
12955,17
12956,17
12957,17
12958,17
12959,17
12960,17
12961,17
12962,17
12963,17
12964,17
12965,26
12966,47
12967,50
12968,25
12969,25
12970,25
12971,21
12972,21
12973,22
12974,21
12975,21
12976,5
12977,15
12978,46
12979,26
12980,26
12981,26
12982,13
12983,18
12984,26
12985,26
12986,30
12987,30
12988,30
12989,27
12990,27
12991,26
12992,26
12993,26
12994,26
12995,26
12996,37
12997,37
12998,13
12999,14
13000,13
13001,13
13002,13
13003,13
13004,13
13005,11
13006,11
13007,2
13008,9
13009,10
13010,11
13011,11
13012,20
13013,11
13014,11
13015,11
13016,11
13017,13
13018,13
13019,13
13020,11
13021,13
13022,13
13023,13
13024,13
13025,13
13026,13
13027,13
13028,13
13029,13
13030,27
13031,27
13032,27
13033,27
13034,27
13035,27
13036,27
13037,27
13038,27
13039,10
13040,6
13041,17
13042,17
13043,17
13044,17
13045,27
13046,27
13047,17
13048,17
13049,21
13050,3
13051,23
13052,25
13053,13
13054,1
13055,25
13056,5
13057,5
13058,25
13059,29
13060,17
13061,17
13062,18
13063,26
13064,26
13065,26
13066,49
13067,49
13068,49
13069,49
13070,26
13071,26
13072,26
13073,26
13074,26
13075,29
13076,32
13077,32
13078,30
13079,30
13080,49
13081,49
13082,49
13083,17
13084,13
13085,13
13086,13
13087,13
13088,14
13089,19
13090,19
13091,19
13092,2
13093,2
13094,2
13095,2
13096,19
13097,19
13098,19
13099,19
13100,19
13101,10
13102,13
13103,18
13104,13
13105,13
13106,13
13107,13
13108,13
13109,13
13110,13
13111,19
13112,13
13113,27
13114,27
13115,27
13116,32
13117,27
13118,47
13119,47
13120,47
13121,47
13122,27
13123,27
13124,21
13125,17
13126,17
13127,17
13128,17
13129,17
13130,27
13131,33
13132,27
13133,10
13134,11
13135,10
13136,13
13137,19
13138,19
13139,19
13140,19
13141,13
13142,33
13143,33
13144,39
13145,37
13146,37
13147,37
13148,27
13149,30
13150,30
13151,27
13152,27
13153,49
13154,49
13155,27
13156,27
13157,27
13158,29
13159,29
13160,28
13161,28
13162,29
13163,50
13164,32
13165,18
13166,50
13167,29
13168,50
13169,50
13170,37
13171,50
13172,50
13173,50
13174,21
13175,35
13176,34
13177,34
13178,41
13179,12
13180,38
13181,38
13182,38
13183,27
13184,27
13185,10
13186,10
13187,27
13188,27
13189,27
13190,27
13191,27
13192,50
13193,10
13194,27
13195,27
13196,27
13197,27
13198,27
13199,27
13200,27
13201,27
13202,27
13203,27
13204,27
13205,27
13206,27
13207,27
13208,47
13209,17
13210,17
13211,17
13212,17
13213,17
13214,17
13215,17
13216,17
13217,17
13218,17
13219,17
13220,27
13221,10
13222,32
13223,32
13224,25
13225,14
13226,19
13227,19
13228,19
13229,42
13230,49
13231,27
13232,27
13233,27
13234,26
13235,38
13236,38
13237,38
13238,37
13239,37
13240,37
13241,37
13242,37
13243,37
13244,37
13245,37
13246,37
13247,37
13248,37
13249,37
13250,37
13251,37
13252,37
13253,37
13254,37
13255,37
13256,50
13257,50
13258,37
13259,45
13260,40
13261,41
13262,38
13263,10
13264,10
13265,27
13266,38
13267,38
13268,38
13269,27
13270,27
13271,17
13272,27
13273,17
13274,17
13275,17
13276,17
13277,17
13278,17
13279,17
13280,17
13281,17
13282,17
13283,27
13284,17
13285,27
13286,17
13287,17
13288,17
13289,17
13290,17
13291,17
13292,17
13293,17
13294,17
13295,27
13296,17
13297,17
13298,17
13299,17
13300,27
13301,10
13302,12
13303,27
13304,38
13305,3
13306,20
13307,20
13308,20
13309,13
13310,13
13311,29
13312,28
13313,28
13314,23
13315,28
13316,29
13317,29
13318,29
13319,28
13320,28
13321,28
13322,25
13323,25
13324,25
13325,28
13326,28
13327,50
13328,28
13329,28
13330,28
13331,28
13332,28
13333,28
13334,28
13335,28
13336,28
13337,28
13338,28
13339,28
13340,28
13341,28
13342,28
13343,25
13344,25
13345,28
13346,28
13347,28
13348,28
13349,28
13350,28
13351,28
13352,28
13353,28
13354,28
13355,28
13356,50
13357,28
13358,28
13359,50
13360,50
13361,45
13362,10
13363,6
13364,10
13365,3
13366,3
13367,3
13368,3
13369,19
13370,19
13371,19
13372,14
13373,19
13374,19
13375,19
13376,10
13377,10
13378,10
13379,10
13380,17
13381,10
13382,10
13383,27
13384,50
13385,50
13386,25
13387,25
13388,25
13389,25
13390,25
13391,28
13392,24
13393,24
13394,28
13395,25
13396,25
13397,25
13398,28
13399,28
13400,28
13401,28
13402,28
13403,28
13404,28
13405,25
13406,28
13407,28
13408,28
13409,28
13410,28
13411,28
13412,28
13413,28
13414,28
13415,28
13416,28
13417,28
13418,28
13419,28
13420,28
13421,28
13422,28
13423,28
13424,25
13425,25
13426,28
13427,28
13428,28
13429,28
13430,28
13431,28
13432,28
13433,28
13434,28
13435,28
13436,28
13437,28
13438,28
13439,28
13440,28
13441,45
13442,10
13443,10
13444,10
13445,2
13446,2
13447,13
13448,13
13449,13
13450,37
13451,37
13452,3
13453,3
13454,3
13455,13
13456,13
13457,13
13458,19
13459,10
13460,10
13461,17
13462,17
13463,17
13464,27
13465,17
13466,10
13467,10
13468,10
13469,10
13470,17
13471,17
13472,17
13473,50
13474,25
13475,24
13476,24
13477,28
13478,28
13479,28
13480,28
13481,28
13482,28
13483,28
13484,28
13485,28
13486,29
13487,29
13488,29
13489,29
13490,29
13491,29
13492,29
13493,29
13494,29
13495,29
13496,29
13497,29
13498,29
13499,29
13500,29
13501,29
13502,29
13503,29
13504,29
13505,28
13506,28
13507,28
13508,28
13509,50
13510,28
13511,28
13512,28
13513,28
13514,28
13515,50
13516,28
13517,28
13518,10
13519,45
13520,8
13521,12
13522,20
13523,18
13524,36
13525,10
13526,10
13527,13
13528,19
13529,19
13530,19
13531,19
13532,19
13533,19
13534,19
13535,11
13536,19
13537,19
13538,19
13539,19
13540,19
13541,10
13542,20
13543,20
13544,19
13545,19
13546,19
13547,12
13548,42
13549,19
13550,42
13551,21
13552,19
13553,45
13554,19
13555,38
13556,25
13557,25
13558,20
13559,20
13560,15
13561,26
13562,1
13563,24
13564,24
13565,28
13566,28
13567,29
13568,29
13569,29
13570,29
13571,29
13572,29
13573,29
13574,50
13575,51
13576,29
13577,29
13578,33
13579,29
13580,29
13581,29
13582,29
13583,29
13584,29
13585,29
13586,29
13587,29
13588,29
13589,29
13590,29
13591,29
13592,29
13593,29
13594,29
13595,29
13596,29
13597,29
13598,28
13599,50
13600,45
13601,45
13602,47
13603,50
13604,50
13605,50
13606,28
13607,38
13608,38
13609,10
13610,10
13611,19
13612,19
13613,3
13614,1
13615,3
13616,19
13617,19
13618,11
13619,11
13620,14
13621,19
13622,1
13623,14
13624,40
13625,40
13626,19
13627,19
13628,38
13629,38
13630,38
13631,38
13632,38
13633,38
13634,38
13635,38
13636,36
13637,36
13638,36
13639,44
13640,44
13641,5
13642,46
13643,36
13644,36
13645,19
13646,14
13647,19
13648,34
13649,34
13650,34
13651,34
13652,34
13653,34
13654,34
13655,34
13656,34
13657,34
13658,34
13659,34
13660,34
13661,34
13662,34
13663,34
13664,6
13665,8
13666,36
13667,36
13668,36
13669,36
13670,36
13671,36
13672,36
13673,36
13674,6
13675,6
13676,6
13677,37
13678,37
13679,22
13680,37
13681,37
13682,43
13683,43
13684,44
13685,44
13686,44
13687,43
13688,42
13689,44
13690,44
13691,44
13692,8
13693,8
13694,44
13695,44
13696,44
13697,8
13698,1
13699,8
13700,8
13701,8
13702,8
13703,44
13704,12
13705,38
13706,38
13707,38
13708,38
13709,38
13710,38
13711,47
13712,38
13713,38
13714,38
13715,38
13716,18
13717,18
13718,5
13719,4
13720,14
13721,19
13722,22
13723,22
13724,22
13725,22
13726,22
13727,22
13728,35
13729,35
13730,35
13731,35
13732,35
13733,34
13734,34
13735,34
13736,34
13737,30
13738,30
13739,30
13740,34
13741,34
13742,36
13743,36
13744,36
13745,36
13746,36
13747,36
13748,36
13749,36
13750,36
13751,30
13752,36
13753,36
13754,36
13755,36
13756,36
13757,36
13758,36
13759,36
13760,50
13761,50
13762,50
13763,21
13764,50
13765,24
13766,24
13767,22
13768,22
13769,36
13770,36
13771,3
13772,3
13773,3
13774,38
13775,32
13776,32
13777,8
13778,23
13779,32
13780,2
13781,46
13782,46
13783,38
13784,38
13785,36
13786,38
13787,38
13788,38
13789,38
13790,38
13791,38
13792,38
13793,12
13794,47
13795,36
13796,36
13797,47
13798,36
13799,36
13800,36
13801,36
13802,36
13803,36
13804,36
13805,36
13806,46
13807,46
13808,46
13809,4
13810,13
13811,5
13812,5
13813,19
13814,3
13815,3
13816,3
13817,3
13818,19
13819,19
13820,19
13821,19
13822,42
13823,42
13824,9
13825,8
13826,9
13827,8
13828,32
13829,41
13830,19
13831,9
13832,13
13833,18
13834,31
13835,18
13836,31
13837,31
13838,31
13839,31
13840,31
13841,18
13842,31
13843,18
13844,18
13845,18
13846,18
13847,18
13848,18
13849,18
13850,22
13851,37
13852,37
13853,37
13854,36
13855,36
13856,37
13857,41
13858,37
13859,37
13860,36
13861,36
13862,46
13863,48
13864,44
13865,44
13866,37
13867,37
13868,44
13869,2
13870,9
13871,11
13872,11
13873,38
13874,38
13875,42
13876,38
13877,38
13878,38
13879,27
13880,27
13881,17
13882,17
13883,27
13884,27
13885,27
13886,27
13887,27
13888,27
13889,17
13890,27
13891,27
13892,46
13893,9
13894,8
13895,10
13896,44
13897,44
13898,44
13899,36
13900,12
13901,19
13902,19
13903,8
13904,12
13905,34
13906,34
13907,34
13908,47
13909,34
13910,37
13911,37
13912,37
13913,37
13914,38
13915,34
13916,34
13917,31
13918,31
13919,31
13920,31
13921,31
13922,18
13923,18
13924,18
13925,18
13926,18
13927,31
13928,31
13929,31
13930,18
13931,18
13932,18
13933,18
13934,39
13935,39
13936,36
13937,8
13938,18
13939,8
13940,46
13941,46
13942,44
13943,8
13944,3
13945,3
13946,3
13947,44
13948,44
13949,44
13950,8
13951,8
13952,23
13953,23
13954,48
13955,48
13956,44
13957,44
13958,38
13959,36
13960,36
13961,27
13962,27
13963,47
13964,47
13965,47
13966,47
13967,47
13968,47
13969,31
13970,31
13971,32
13972,36
13973,18
13974,36
13975,36
13976,43
13977,43
13978,46
13979,19
13980,14
13981,19
13982,19
13983,36
13984,36
13985,36
13986,50
13987,10
13988,10
13989,33
13990,42
13991,32
13992,37
13993,37
13994,37
13995,37
13996,37
13997,37
13998,37
13999,37
14000,37
14001,37
14002,37
14003,37
14004,37
14005,37
14006,37
14007,37
14008,37
14009,37
14010,37
14011,13
14012,3
14013,48
14014,3
14015,44
14016,46
14017,46
14018,8
14019,20
14020,38
14021,38
14022,27
14023,27
14024,20
14025,38
14026,38
14027,38
14028,38
14029,38
14030,38
14031,38
14032,38
14033,38
14034,38
14035,38
14036,47
14037,47
14038,47
14039,32
14040,47
14041,38
14042,38
14043,32
14044,32
14045,32
14046,27
14047,38
14048,38
14049,27
14050,27
14051,47
14052,47
14053,47
14054,38
14055,38
14056,42
14057,36
14058,45
14059,46
14060,5
14061,19
14062,19
14063,19
14064,30
14065,30
14066,23
14067,37
14068,36
14069,13
14070,13
14071,13
14072,13
14073,11
14074,13
14075,13
14076,18
14077,18
14078,18
14079,37
14080,37
14081,37
14082,37
14083,37
14084,33
14085,37
14086,37
14087,37
14088,37
14089,37
14090,37
14091,38
14092,38
14093,37
14094,37
14095,50
14096,36
14097,13
14098,3
14099,48
14100,48
14101,3
14102,3
14103,3
14104,9
14105,11
14106,11
14107,12
14108,12
14109,36
14110,38
14111,38
14112,27
14113,27
14114,27
14115,38
14116,47
14117,47
14118,38
14119,47
14120,47
14121,30
14122,30
14123,38
14124,47
14125,47
14126,21
14127,21
14128,38
14129,38
14130,38
14131,27
14132,27
14133,38
14134,27
14135,45
14136,20
14137,15
14138,46
14139,14
14140,33
14141,33
14142,40
14143,40
14144,40
14145,40
14146,40
14147,19
14148,19
14149,2
14150,33
14151,33
14152,33
14153,40
14154,40
14155,40
14156,40
14157,40
14158,40
14159,40
14160,40
14161,40
14162,37
14163,37
14164,37
14165,37
14166,33
14167,37
14168,37
14169,37
14170,37
14171,37
14172,37
14173,37
14174,37
14175,40
14176,40
14177,40
14178,40
14179,38
14180,46
14181,33
14182,33
14183,3
14184,43
14185,46
14186,44
14187,44
14188,48
14189,48
14190,48
14191,48
14192,44
14193,42
14194,42
14195,42
14196,46
14197,46
14198,38
14199,38
14200,38
14201,38
14202,32
14203,27
14204,38
14205,38
14206,10
14207,38
14208,38
14209,21
14210,10
14211,21
14212,21
14213,27
14214,27
14215,27
14216,27
14217,27
14218,10
14219,27
14220,38
14221,38
14222,10
14223,17
14224,4
14225,33
14226,33
14227,33
14228,33
14229,33
14230,40
14231,40
14232,40
14233,40
14234,33
14235,33
14236,33
14237,33
14238,33
14239,18
14240,51
14241,33
14242,33
14243,33
14244,33
14245,33
14246,33
14247,33
14248,33
14249,33
14250,33
14251,30
14252,33
14253,37
14254,37
14255,37
14256,33
14257,33
14258,33
14259,33
14260,33
14261,33
14262,33
14263,37
14264,39
14265,40
14266,40
14267,33
14268,33
14269,46
14270,10
14271,10
14272,46
14273,48
14274,44
14275,44
14276,46
14277,46
14278,48
14279,48
14280,48
14281,44
14282,48
14283,42
14284,46
14285,42
14286,44
14287,43
14288,43
14289,43
14290,35
14291,38
14292,42
14293,43
14294,44
14295,44
14296,21
14297,47
14298,30
14299,47
14300,47
14301,47
14302,47
14303,47
14304,47
14305,47
14306,47
14307,38
14308,36
14309,20
14310,20
14311,16
14312,6
14313,17
14314,15
14315,14
14316,12
14317,12
14318,12
14319,12
14320,34
14321,30
14322,30
14323,34
14324,30
14325,38
14326,30
14327,30
14328,39
14329,39
14330,39
14331,34
14332,34
14333,34
14334,34
14335,39
14336,39
14337,39
14338,31
14339,31
14340,39
14341,31
14342,31
14343,31
14344,31
14345,31
14346,31
14347,31
14348,39
14349,39
14350,34
14351,34
14352,34
14353,34
14354,50
14355,50
14356,47
14357,47
14358,25
14359,37
14360,37
14361,36
14362,44
14363,44
14364,3
14365,3
14366,2
14367,10
14368,10
14369,12
14370,12
14371,38
14372,38
14373,38
14374,38
14375,38
14376,38
14377,38
14378,38
14379,38
14380,17
14381,17
14382,17
14383,17
14384,17
14385,17
14386,17
14387,17
14388,17
14389,17
14390,17
14391,17
14392,17
14393,16
14394,16
14395,15
14396,15
14397,14
14398,12
14399,12
14400,34
14401,34
14402,12
14403,34
14404,34
14405,30
14406,30
14407,30
14408,30
14409,30
14410,30
14411,34
14412,34
14413,30
14414,34
14415,34
14416,34
14417,39
14418,39
14419,39
14420,39
14421,39
14422,39
14423,39
14424,39
14425,34
14426,36
14427,37
14428,37
14429,39
14430,50
14431,50
14432,50
14433,37
14434,50
14435,50
14436,50
14437,37
14438,37
14439,41
14440,43
14441,36
14442,8
14443,8
14444,8
14445,2
14446,8
14447,46
14448,48
14449,42
14450,42
14451,38
14452,38
14453,38
14454,35
14455,42
14456,38
14457,36
14458,36
14459,36
14460,36
14461,38
14462,38
14463,38
14464,27
14465,19
14466,27
14467,27
14468,19
14469,19
14470,19
14471,19
14472,46
14473,19
14474,19
14475,21
14476,8
14477,46
14478,42
14479,48
14480,20
14481,12
14482,3
14483,25
14484,25
14485,21
14486,21
14487,23
14488,35
14489,47
14490,35
14491,35
14492,35
14493,14
14494,36
14495,37
14496,37
14497,39
14498,35
14499,35
14500,38
14501,38
14502,41
14503,41
14504,38
14505,38
14506,38
14507,41
14508,38
14509,38
14510,38
14511,45
14512,37
14513,38
14514,12
14515,7
14516,12
14517,14
14518,36
14519,36
14520,44
14521,8
14522,46
14523,46
14524,8
14525,8
14526,8
14527,44
14528,42
14529,42
14530,30
14531,47
14532,47
14533,42
14534,43
14535,42
14536,42
14537,38
14538,36
14539,38
14540,38
14541,44
14542,44
14543,44
14544,36
14545,38
14546,38
14547,27
14548,17
14549,17
14550,17
14551,38
14552,38
14553,38
14554,36
14555,8
14556,8
14557,8
14558,8
14559,8
14560,8
14561,36
14562,12
14563,14
14564,14
14565,14
14566,16
14567,41
14568,35
14569,47
14570,47
14571,35
14572,47
14573,47
14574,50
14575,50
14576,21
14577,37
14578,34
14579,12
14580,12
14581,34
14582,12
14583,12
14584,39
14585,39
14586,39
14587,39
14588,39
14589,39
14590,39
14591,50
14592,50
14593,50
14594,50
14595,39
14596,37
14597,50
14598,28
14599,28
14600,50
14601,50
14602,50
14603,50
14604,50
14605,50
14606,47
14607,47
14608,47
14609,47
14610,47
14611,37
14612,37
14613,36
14614,23
14615,8
14616,23
14617,8
14618,8
14619,8
14620,38
14621,5
14622,5
14623,5
14624,23
14625,23
14626,23
14627,22
14628,35
14629,38
14630,27
14631,38
14632,38
14633,38
14634,38
14635,38
14636,27
14637,50
14638,36
14639,43
14640,41
14641,41
14642,37
14643,44
14644,44
14645,36
14646,36
14647,44
14648,36
14649,36
14650,36
14651,3
14652,36
14653,36
14654,37
14655,38
14656,38
14657,38
14658,5
14659,44
14660,8
14661,8
14662,8
14663,8
14664,5
14665,8
14666,44
14667,36
14668,36
14669,44
14670,6
14671,44
14672,44
14673,44
14674,36
14675,36
14676,36
14677,36
14678,44
14679,44
14680,44
14681,37
14682,37
14683,37
14684,44
14685,44
14686,44
14687,36
14688,37
14689,44
14690,44
14691,44
14692,9
14693,2
14694,2
14695,48
14696,44
14697,44
14698,36
14699,38
14700,42
14701,42
14702,42
14703,38
14704,44
14705,44
14706,36
14707,36
14708,47
14709,47
14710,47
14711,47
14712,36
14713,36
14714,17
14715,17
14716,27
14717,21
14718,21
14719,17
14720,27
14721,42
14722,48
14723,36
14724,37
14725,41
14726,38
14727,8
14728,36
14729,7
14730,5
14731,44
14732,44
14733,36
14734,44
14735,44
14736,36
14737,36
14738,36
14739,36
14740,36
14741,36
14742,36
14743,36
14744,34
14745,36
14746,36
14747,36
14748,36
14749,36
14750,36
14751,36
14752,36
14753,36
14754,36
14755,36
14756,30
14757,37
14758,37
14759,41
14760,37
14761,37
14762,41
14763,37
14764,37
14765,36
14766,3
14767,3
14768,44
14769,3
14770,36
14771,36
14772,43
14773,43
14774,36
14775,36
14776,36
14777,36
14778,36
14779,36
14780,38
14781,38
14782,38
14783,36
14784,38
14785,38
14786,38
14787,38
14788,27
14789,27
14790,27
14791,27
14792,27
14793,27
14794,27
14795,27
14796,27
14797,36
14798,38
14799,36
14800,36
14801,36
14802,36
14803,36
14804,36
14805,37
14806,36
14807,37
14808,14
14809,41
14810,38
14811,36
14812,36
14813,18
14814,8
14815,8
14816,8
14817,3
14818,3
14819,36
14820,48
14821,8
14822,48
14823,48
14824,32
14825,37
14826,37
14827,37
14828,37
14829,37
14830,37
14831,37
14832,37
14833,37
14834,37
14835,37
14836,37
14837,37
14838,37
14839,37
14840,37
14841,37
14842,37
14843,37
14844,37
14845,37
14846,37
14847,37
14848,37
14849,37
14850,37
14851,37
14852,37
14853,37
14854,37
14855,37
14856,37
14857,37
14858,48
14859,38
14860,48
14861,48
14862,48
14863,36
14864,36
14865,44
14866,44
14867,8
14868,8
14869,8
14870,8
14871,8
14872,12
14873,27
14874,10
14875,44
14876,44
14877,36
14878,38
14879,38
14880,38
14881,36
14882,36
14883,38
14884,38
14885,47
14886,47
14887,37
14888,37
14889,37
14890,37
14891,37
14892,37
14893,37
14894,37
14895,18
14896,18
14897,36
14898,46
14899,46
14900,9
14901,22
14902,10
14903,48
14904,37
14905,37
14906,37
14907,37
14908,37
14909,37
14910,37
14911,37
14912,37
14913,37
14914,37
14915,37
14916,37
